rel_path,subject,scenario,timestamp,mat_format,size_mb,fs_radar,fs_ecg,fs_icg,fs_z0,fs_bp,n_radar,n_ecg,duration_s,has_radar,missing_channels,dur_ecg1_s,dur_icg_s,dur_z0_s,dur_bp_s,n_samples_128hz,n_windows_nooverlap,n_windows_overlap50,iq_xc,iq_yc,iq_a,iq_b,iq_theta_rad,iq_gain_imbalance,iq_residual,I_min,I_max,I_mean,I_std,I_p01,I_p99,I_n_nan,I_n_inf,I_pct_clip,I_max_flat_run,Q_min,Q_max,Q_mean,Q_std,Q_p01,Q_p99,Q_n_nan,Q_n_inf,Q_pct_clip,Q_max_flat_run,phi_min,phi_max,phi_mean,phi_std,phi_p01,phi_p99,phi_n_nan,phi_n_inf,phi_pct_clip,phi_max_flat_run,dy_min,dy_max,dy_mean,dy_std,dy_p01,dy_p99,dy_n_nan,dy_n_inf,dy_pct_clip,dy_max_flat_run,vel_min,vel_max,vel_mean,vel_std,vel_p01,vel_p99,vel_n_nan,vel_n_inf,vel_pct_clip,vel_max_flat_run,acc_min,acc_max,acc_mean,acc_std,acc_p01,acc_p99,acc_n_nan,acc_n_inf,acc_pct_clip,acc_max_flat_run,amp_min,amp_max,amp_mean,amp_std,amp_p01,amp_p99,amp_n_nan,amp_n_inf,amp_pct_clip,amp_max_flat_run,cardiac_min,cardiac_max,cardiac_mean,cardiac_std,cardiac_p01,cardiac_p99,cardiac_n_nan,cardiac_n_inf,cardiac_pct_clip,cardiac_max_flat_run,displacement_range_mm,phase_wraps,ecg1_min,ecg1_max,ecg1_mean,ecg1_std,ecg1_p01,ecg1_p99,ecg1_n_nan,ecg1_n_inf,ecg1_pct_clip,ecg1_max_flat_run,ecg2_min,ecg2_max,ecg2_mean,ecg2_std,ecg2_p01,ecg2_p99,ecg2_n_nan,ecg2_n_inf,ecg2_pct_clip,ecg2_max_flat_run,icg_min,icg_max,icg_mean,icg_std,icg_p01,icg_p99,icg_n_nan,icg_n_inf,icg_pct_clip,icg_max_flat_run,z0_min,z0_max,z0_mean,z0_std,z0_p01,z0_p99,z0_n_nan,z0_n_inf,z0_pct_clip,z0_max_flat_run,bp_min,bp_max,bp_mean,bp_std,bp_p01,bp_p99,bp_n_nan,bp_n_inf,bp_pct_clip,bp_max_flat_run,intervention_min,intervention_max,intervention_mean,intervention_std,intervention_p01,intervention_p99,intervention_n_nan,intervention_n_inf,intervention_pct_clip,intervention_max_flat_run,ecg1_n_rpeaks,ecg1_mean_hr,ecg1_sd_hr,ecg1_rmssd_ms,ecg1_pct_flat,ecg1_median_rr_ms,ecg1_hr_plausible,ecg2_mean_hr,ecg2_n_rpeaks,sync_lag_s,sync_xcorr,beat_coupling,quality_flags,n_flags,census_seconds,scenario_canon,exclude_reason,keep
datasets_subject_01_to_10_scidata/GDN0004/GDN0004_3_Apnea.mat,GDN0004,Apnea,2018-02-09_16-56-26,v5,9.74,2000.0,2000.0,1000.0,100.0,200.0,293800,293800,146.9,True,,146.9,146.9,146.9,146.9,18803,18,35,377.2394883074536,354.239567149661,1446.1290346621763,1229.133299609606,-0.3301878086034113,1.1765436955629565,0.2731082335884456,-1251.0323524475098,2047.900676727295,348.89659164063863,834.4572493428135,-1144.5293760299685,1848.793067932129,0,0,0.0006807351940095,2,-1581.5815925598145,1700.1686096191406,126.78777982784504,886.4319319565061,-1393.2941722869873,1667.0160675048828,0,0,0.0006807351940095,2,-2.038572353084257,14.477093573867366,2.057076538876771,3.7874931228801207,-1.8232268313791495,12.97861203408594,0,0,0.0006807351940095,0,-2.0264025684672573,14.390668821560896,2.044796288739493,3.764882703645265,-1.812342607519128,12.901132854677142,0,0,0.0006807351940095,0,-23.652548137297565,25.889006103435747,0.0068772745640121,3.3674158448371827,-8.25440799180803,9.235999268713188,0,0,0.0006807351940095,0,-14511.471656163709,17977.56787610709,0.0017290562333654,1725.8352406356482,-4412.288980723831,4424.015408358252,0,0,0.0006807351940095,0,452.4103194648828,1762.181066828657,1158.182852666588,375.0905900739209,542.4567055967381,1633.6436589896275,0,0,0.0006807351940095,0,-0.4507198760857428,0.6690420757483663,-0.0003366719486954,0.1102873543747213,-0.269758826147368,0.2717429503693211,0,0,0.0006807351940095,0,16.417071390028156,2.6285498707287407,-0.2652260306958798,0.2203450124228188,0.0039545355394596,0.0517811248034467,-0.1319947121564496,0.1334022768428641,0,0,0.0006807351940095,0,-3.012237576990517,4.577147392249253,-0.0521031288281318,1.117556826001233,-2.323886295427428,2.7030158501878327,0,0,0.0006807351940095,0,-2.226240212875414,3.525216002177621,-0.0101809304974058,0.9470078084577892,-1.6581945856416045,2.57345465412194,0,0,0.001361470388019,0,41.10285466786549,43.49289223524664,41.82772748881949,0.496332744739753,41.17999564581521,43.24537454844268,0,0,0.0136147038801906,0,79.26079612782776,136.66056003441426,102.15218470114488,11.78821398202068,82.49281558519318,131.73339810337671,0,0,0.0068073519400953,0,0.0406848906185824,3.50374044088928,1.4069273468626546,1.665438056158026,0.0481462965771481,3.4521220643540547,0,0,0.0006807351940095,0,184,75.11753945124714,2.9624721536871075,15.673172992357088,0.1072161579855615,800.5,True,75.11957729738842,184,1.519,0.0389292556573047,1.0219338394592237,large_sync_lag;weak_radar_ecg_coupling,2,1.05,Apnea,,True
datasets_subject_01_to_10_scidata/GDN0005/GDN0005_3_Apnea.mat,GDN0005,Apnea,2018-02-16_10-38-58,v5,10.04,2000.0,2000.0,1000.0,100.0,200.0,301700,301700,150.85,True,,150.85,150.85,150.85,150.85,19309,18,36,637.3369129541397,1151.057004494527,2366.0521258574327,1827.2598220490083,0.1815188611982026,1.2948635422871864,0.5054946693457714,-2976.682662963867,3706.964492797852,1064.786955217356,1177.622332083161,-1812.8645324707031,3405.3613948822035,0,0,0.0006629101756711,2,-2163.1503105163574,3919.86894607544,571.8790542348395,1029.1540461986451,-1366.8970203399658,3178.25761318207,0,0,0.0006629101756711,2,-20.61169000596598,10.69586546250356,-3.69509648380151,9.448842976379876,-20.26108175994903,10.002219027583378,0,0,0.0006629101756711,0,-20.48864319451213,10.63201372882624,-3.673037650187455,9.39243566577919,-20.14012799504932,9.94250819560158,0,0,0.0006629101756711,0,-237.04119533645763,591.1188560124638,-0.1226804466009437,6.101750811156159,-13.033100894614222,12.56687546709886,0,0,0.0006629101756711,0,-337115.2261025181,250776.74436607468,0.0915164741222733,3002.8076878365687,-6303.702690085857,6364.265176295479,0,0,0.0006629101756711,0,4.180252019929037,4257.492874095417,1344.9975526228434,798.081444005929,145.79833241588568,3247.211334893765,0,0,0.0006629101756711,0,-1.3490765114920933,1.378591690524622,-2.091556345446778e-05,0.1988114595083621,-0.7312156995934189,0.6940492597142168,0,0,0.0006629101756711,0,31.120656923338373,4.982752208930626,-0.2355694841846592,0.3314467201162149,0.0066577117461297,0.0589467943602043,-0.1207493304156119,0.1834314646510584,0,0,0.0006629101756711,0,-0.3882825732784039,1.3031439520127093,-0.0096334060228712,0.19010904570512,-0.268272426905236,0.86710513126515,0,0,0.0006629101756711,0,-6.893170020483965,5.735486375381631,-0.0069812536445975,0.7903584139223322,-1.6678494045567434,2.2773366818417915,63,0,0.0013263742895607,0,40.1578077774439,43.5651291631411,41.976969806123854,0.5784108877744848,40.37173995717141,43.32469457136939,0,0,0.0132582035134239,0,105.74113156189672,153.7471776203392,123.06932564690436,9.35517141241314,107.33893208235902,146.99826500516025,0,0,0.0066291017567119,0,0.0253551310362978,3.477651920382136,2.70443334180162,1.4067292160058904,0.0481503635592497,3.452396163487138,0,0,0.0006629101756711,0,165,66.30989563274203,5.774986634498678,40.88673941662137,0.084852783734782,911.0,True,66.30186071564651,165,1.395,0.0597439074383896,1.1688086298212133,large_sync_lag;weak_radar_ecg_coupling,2,1.04,Apnea,,True
datasets_subject_01_to_10_scidata/GDN0007/GDN0007_3_Apnea.mat,GDN0007,Apnea,2018-02-19_10-00-10,v5,12.36,2000.0,2000.0,1000.0,100.0,200.0,372500,372500,186.25,True,,186.25,186.25,186.26,186.25,23840,23,45,1723.0224873646475,791.6818209285707,1625.7634815465358,1252.4493240011593,0.1723871465358173,1.29806727537108,0.3401463478917619,-673.0585098266602,3882.26842880249,1447.234550782018,905.1946190537838,-242.11960315704343,3422.478022575379,0,0,0.0005369127516778,2,-1287.9204750061035,3014.836311340332,1121.4554996221657,793.9289652178127,-791.3794279098508,2442.648625373841,0,0,0.0005369127516778,2,-1.7455812213960065,15.291052300062614,4.565081463621033,3.5578762646328315,0.6898853856542353,13.98962519788212,0,0,0.0005369127516778,0,-1.735160523075572,15.199768410738056,4.537829029785524,3.536636602587474,0.6857669365145097,13.906110514052918,0,0,0.0005369127516778,0,-1321.0514783534038,2811.924765966814,0.0191041521496264,12.158726250673244,-17.540809040551032,17.56214830289915,0,0,0.0005369127516778,0,-1134942.81794212,1347343.6395685126,-0.0625139555542419,7701.116940482748,-10965.250429295796,10921.527516467271,0,0,0.0005369127516778,0,25.90231441602016,2680.016440579258,1103.8649063750097,480.8146926305839,134.64052528990817,2327.5765085176613,0,0,0.0005369127516778,0,-2.122409290027768,1.45814640088318,0.0001002884291212,0.1391324230196262,-0.4032530519337591,0.385864904162512,0,0,0.0005369127516778,0,16.934928933813627,2.711464438585223,-0.1893694214411959,0.3061830801970754,0.0044040504738244,0.0655220898470738,-0.1017329311912108,0.2255106588022514,0,0,0.0005369127516778,0,-0.4738999670111568,1.3160487890731405,-0.0144477629719414,0.2173545778795339,-0.2629914666340529,0.9104096478015758,0,0,0.0005369127516778,0,-2.36734223325701,2.713857657961622,-0.0112936620152919,0.7203521057252913,-1.4232318476587418,1.974186271039401,0,0,0.0010738255033557,0,26.197523397816056,28.46184192588357,26.6800141208984,0.3935595273413128,26.25881703889251,27.984184407841934,0,0,0.0107376785139052,2,53.967733445351485,89.35948246508393,68.23637259567003,6.591514440459334,55.880963288775554,84.46769346336734,0,0,0.0053691275167785,0,0.0372087034603141,3.4953157230467995,2.4786382998457164,1.5363720976090898,0.0485150230163788,3.4531613035655107,0,0,0.0005369127516778,0,354,88.7072820243729,28.232554992674533,216.48695790087788,0.1814769972536839,704.0,True,59.60576282379425,181,-0.8215,0.0417657019886856,0.6785641655302351,weak_radar_ecg_coupling,1,1.21,Apnea,,True
datasets_subject_01_to_10_scidata/GDN0008/GDN0008_3_Apnea.mat,GDN0008,Apnea,2018-02-19_12-21-44,v5,7.03,2000.0,2000.0,1000.0,100.0,200.0,213750,213750,106.88,True,,106.88,106.88,106.88,106.88,13680,13,25,2247.1831044206583,589.4245356003088,2186.2758603989755,1862.3492523314085,1.4213383625643146,1.173934404442161,0.2920624314473149,-1884.80806350708,3999.999523162842,2756.858922248974,1147.3990040846973,-1.648044586181593,3999.999523162842,0,0,15.910175438596491,21651,-2046.888828277588,3859.917163848877,72.97763051038596,1196.5416812509,-1615.5231142044067,2803.372535705571,0,0,0.0009356725146198,2,0.1410060321424059,24.641498302610746,17.242705668294995,8.337421563698648,0.3988166618709925,24.376041047020628,0,0,0.0009356725146198,2,0.1401642601845577,24.494394508855645,17.1397708797014,8.287649170514843,0.3964358227169159,24.230521968971438,0,0,0.0009356725146198,2,-767.4168184404034,646.7990688799482,-0.012193152477538,10.557158030065926,-21.084235910590017,20.87759638123081,0,0,0.0009356725146198,0,-435093.5220265897,687849.2890704514,-1.4917958154256457,6761.366483873876,-12882.972383475882,12820.786850748793,0,0,0.0009356725146198,0,101.8678066877764,5048.157260493929,1565.8872108526327,544.273563967098,326.1740968313665,3360.0092947445223,0,0,0.0009356725146198,2,-1.4592206887858623,1.1763310370637472,3.4330168570895264e-05,0.161105345889315,-0.4983570405357439,0.5088040648281585,0,0,0.0009356725146198,0,24.354230248671087,3.89937445302981,-0.587379226021572,0.58579586816076,0.0109598756845473,0.1440102814426022,-0.2531287293187216,0.2958086339117871,0,0,0.0009356725146198,0,-0.9079283924479696,3.187147986834,0.0247869616896123,0.3508366634478054,-0.4964529886662464,1.668142829762843,0,0,0.0009356725146198,0,-2.2310560824942733,2.846778929300931,-0.0136630853607669,0.5324056396049793,-1.5649381115393324,1.7340809498065268,0,0,0.0018713450292397,0,21.66181267808681,25.390916251656247,24.335662629076023,1.3068700354659608,21.717276879795183,25.349978270152494,0,0,0.0187125748502994,0,53.164793619247206,124.72621808728904,80.79500720802051,11.340401681395177,58.56173514790085,111.36130073011468,0,0,0.0093567251461988,0,0.0228300367912763,3.455255443603459,1.2825162911845394,1.6349862898469756,0.0481670285032502,3.451893098434093,0,0,0.0009356725146198,0,120,68.82406612365577,9.97090058663958,98.53149500781248,0.0261989529775577,841.5,True,68.82179109512481,120,-1.7515,0.0638791967168105,1.5307356589692984,iq_clipping;large_sync_lag,2,0.8,Apnea,,True
datasets_subject_01_to_10_scidata/GDN0009/GDN0009_3_Apnea.mat,GDN0009,Apnea,2018-02-19_15-28-37,v5,15.17,2000.0,2000.0,1000.0,100.0,200.0,454800,454800,227.4,True,,227.4,227.4,227.4,227.4,29107,28,55,703.3913841234681,495.0025557796199,2539.977317419612,2354.730684658788,0.3166584002751289,1.0786699871742094,0.163317148683896,-2529.252052307129,3878.3016204833984,-60.30663260474159,1228.0973117652752,-2069.831166267395,3417.8967809677133,0,0,0.0004397537379067,2,-2558.002471923828,3736.494541168213,-211.28843913082503,1744.3935074018889,-2103.665900230408,3454.715304374696,0,0,0.0004397537379067,2,-10.59716806542514,12.794342268164378,2.3287995349981423,6.075332289287919,-5.526926656845298,10.667672230509671,0,0,0.0004397537379067,0,-10.533905531372197,12.717963134755564,2.3148971641972143,6.039064022760375,-5.493932239499256,10.603988803618476,0,0,0.0004397537379067,0,-46.90555822525812,98.27493477058216,-0.0043560906278336,3.002609778228812,-7.989410330014782,7.842899536418683,0,0,0.0004397537379067,0,-54051.77348295588,46784.19839052134,-0.0380554937533039,1083.2187361833678,-2590.3945380445043,2585.4267137394218,0,0,0.0004397537379067,0,9.558142488077326,4411.753094844309,2018.8269845252244,689.5428357859626,777.6754842597654,4084.65878742048,0,0,0.0004397537379067,0,-1.4941480327028545,1.768804335826102,-4.287632269157118e-06,0.1239364858156525,-0.3229333402262078,0.3603292799495302,0,0,0.0004397537379067,0,23.251868666127763,3.722874495975921,-0.299950245276066,0.691606688703046,0.0066827888176894,0.0840866601830374,-0.1506374241312499,0.3135188942367629,41,0,0.0004397933850676,2,-1.03382674072212,2.564929450797193,-0.0152235630643369,0.2577589804279268,-0.5592501565604246,1.0718416799823507,45,0,0.0004397972534661,2,-8.518265901661005,9.691107218250249,-0.0107634652777696,0.5880583246118243,-1.2567394968549337,1.8272475624996871,0,0,0.0008795074758135,2,9.713078576176274,19.981638849772008,18.03441454714372,1.4377874165982008,16.27548100439143,19.94165432598628,0,0,0.0087950747581354,0,40.44146073200377,141.0303081650885,88.91514038680181,14.42080564281027,67.10999595108783,130.9452420781558,0,0,0.0043975373790677,0,0.0254883816150892,3.5296166374243176,1.9719235040381808,1.685331669652859,0.0479688909213807,3.4521469921155483,41,0,0.0004397933850676,2,148,59.87292915527618,3.563485665827541,63.54882024667748,0.0609060266183522,1000.25,True,61.24972918767912,231,-1.9995,0.0716826062295501,1.3913705730575758,large_sync_lag,1,1.49,Apnea,,True
datasets_subject_01_to_10_scidata/GDN0010/GDN0010_3_Apnea.mat,GDN0010,Apnea,2018-02-20_10-17-08,v5,17.68,2000.0,2000.0,1000.0,100.0,200.0,529650,529650,264.82,True,,264.82,264.83,264.82,264.83,33898,33,65,643.229119091562,924.8587768434102,1746.2829804153716,1644.218821128697,1.2688342202598166,1.0620745596480956,0.1860676514225377,-2442.089080810547,3453.36389541626,128.4462904599259,1093.586809243887,-1296.156530380249,2285.5203676223755,0,0,0.0003776078542433,2,-1992.3787117004397,3830.5697441101074,1345.3110520796702,982.5852860087994,-890.8356046676636,2747.8660297393803,0,0,0.0003776078542433,2,-4.038883152605148,14.960272535675896,3.221596713794081,3.696731512077522,-3.047427024911052,12.462822123279048,0,0,0.0003776078542433,0,-4.014771995605461,14.870963321658865,3.2023645594531307,3.6746629177395302,-3.029234621549413,12.38842208507053,0,0,0.0003776078542433,0,-18.765616983906284,16.817878355800985,0.0005122177836334,2.906294626445156,-7.291879972448002,7.357950511767336,0,0,0.0003776078542433,0,-9352.299421936914,9594.2524672031,-0.0117619944115502,1583.7135430116443,-3934.548906462385,3939.068782921619,0,0,0.0003776078542433,0,476.7922102044432,3357.5313249557094,1396.2583195264372,460.2919277876039,648.7756687785488,2675.46385424347,0,0,0.0003776078542433,0,-0.5173827104726078,0.5151303280246803,-1.5338914900635538e-05,0.0659328882306477,-0.1736311570956812,0.1710722068775144,0,0,0.0003776078542433,0,18.885735317264327,3.023809542362429,-0.3869193839676439,0.3490402426336398,0.0080701347351795,0.0720046034075302,-0.1360913987142915,0.2256832707503648,0,0,0.0003776078542433,0,-0.5774680245567358,2.276790807030525,-0.0090934430953356,0.2888580841105949,-0.3675776192854846,1.1928949562405942,0,0,0.0003776078542433,0,-2.2672620774189856,3.103288987012184,-0.0119293841877787,0.6739441571544034,-1.4140907380215484,2.029252131103684,0,0,0.0007552128567436,0,23.87661005453826,27.334176745575945,25.447862039889763,1.0031328342966288,24.08519597140843,27.240684277975635,0,0,0.0075522996752511,0,67.64536618238321,123.40498201383184,90.34930809339308,11.546663521269435,70.3784574236535,117.84993242083466,0,0,0.0037760072499339,0,0.0249240591132067,3.470393315555169,2.021398361650005,1.6787913800620695,0.0480891917803126,3.453609296054671,0,0,0.0003776078542433,0,227,52.26114449924499,6.406510536164041,75.47284723423952,0.1215899586329814,1190.0,True,52.283881735127856,228,1.9995,0.031744274318121,0.8580604779523301,large_sync_lag;weak_radar_ecg_coupling,2,1.46,Apnea,,True
datasets_subject_11_to_20_scidata/GDN0011/GDN0011_3_Apnea.mat,GDN0011,Apnea,2018-02-20_12-22-14,v5,13.78,2000.0,2000.0,1000.0,100.0,200.0,409750,409750,204.88,True,,204.88,204.88,204.88,204.88,26224,25,50,434.2220860354112,856.6065189678731,3289.7485101212374,2737.7550026602053,1.1492088416241826,1.2016226824258105,0.1628273628686992,-3103.4789085388184,3999.999523162842,54.55517673666991,1901.3243387681089,-2559.285659790039,3507.611646652223,0,0,0.0217205613178767,57,-3219.444751739502,3994.7705268859854,-613.018982567825,1679.0295640139177,-2767.61736869812,3704.9096822738647,0,0,0.0004881025015253,2,0.4690269046433016,17.83129162821374,7.897382880037609,6.542373583513474,0.8341746248896016,17.55968979144269,0,0,0.0004881025015253,0,0.4662269272961884,17.72484312358747,7.850237411522535,6.503317193253473,0.8291948038386027,17.454862684188004,0,0,0.0004881025015253,0,-25.924333653878307,20.87083500506833,0.0027062366597654,2.971845553685218,-7.361296950766409,8.822023659125119,0,0,0.0004881025015253,0,-9358.96433569584,9993.10670585955,0.0653476932831362,1194.4929284275352,-3411.5327616981194,3353.975395463681,0,0,0.0004881025015253,0,230.041527900106,5633.719474917927,2385.6375271040306,861.9211723224574,513.436344726413,4579.2125412551695,0,0,0.0004881025015253,0,-1.2035347034057935,0.917805543571622,-7.459493180400727e-05,0.129896160772807,-0.3279714194948802,0.3320704066893809,0,0,0.0004881025015253,0,17.258616196291282,2.763290254026276,-0.4841274721561359,0.4503858236602744,0.0091167043996154,0.0780925996451279,-0.1198979048710793,0.2285570906055214,0,0,0.0004881025015253,0,-1.119830928121436,3.335155616326533,0.0061764697667761,0.552683819332759,-0.7953030822745467,1.7039360736326656,0,0,0.0004881025015253,0,-3.036704181628437,3.445955829512655,-0.011320976172303,0.7712388866929717,-1.7300509014001235,2.1293704448512685,0,0,0.0009762002381928,2,28.355465569462325,31.31435041002845,29.7261819140238,1.0348488678948198,28.53774738782073,31.257685949049037,0,0,0.0097618117922686,0,80.04532782084894,151.10927178329507,106.38471946663502,12.671666408615405,84.57120868772125,140.31336427309114,0,0,0.0048809058961343,0,0.0255827633333319,3.4771368460078285,1.7872647059534232,1.699843407387353,0.0475450249190917,3.4522069530768884,0,0,0.0004881025015253,0,174,68.7023758595257,12.461033918586375,141.3985460199929,0.0529592506632108,915.75,True,67.91174024378579,226,0.2635,-0.0026680860973548,1.0793191160978726,weak_radar_ecg_coupling,1,1.31,Apnea,,True
datasets_subject_11_to_20_scidata/GDN0012/GDN0012_3_Apnea.mat,GDN0012,Apnea,2018-02-20_15-15-52,v5,26.83,2000.0,2000.0,1000.0,100.0,200.0,803600,803600,401.8,True,,401.8,401.8,401.79,401.81,51430,50,99,118.3658513455593,668.3803367192459,1829.8440620939032,1712.5416490726643,1.1573998737307454,1.068496093560561,0.1510088475042533,-1990.002155303955,2741.7984008789062,5.07739307691708,1309.5629340462351,-1689.5179891586304,2158.545203208924,0,0,0.0002488800398208,2,-1482.922077178955,3128.286361694336,-49.82473919141227,862.1049099837747,-1325.0957822799685,2399.3107128143315,0,0,0.0002488800398208,2,-0.2437975906477215,17.831186792022915,5.998489387729395,5.495897688202152,1.546642921503553,17.47781338972539,0,0,0.0002488800398208,0,-0.2423421779105491,17.724738913243385,5.962679854766001,5.463088506305177,1.537409836788346,17.373475064815178,0,0,0.0002488800398208,0,-18.878183122858445,17.92297806065926,-0.0052517813145848,2.7899774347876183,-6.736780775034407,6.842400158143694,0,0,0.0002488800398208,0,-10921.049890368597,10364.123312156064,-0.0018444745059239,1426.9525437254504,-3586.248607894817,3577.6075463619154,0,0,0.0002488800398208,0,119.33004548810422,3353.2845975339733,1512.2553002298362,413.8403810319718,811.4446541562421,2642.680666238167,0,0,0.0002488800398208,0,-0.550571312210322,0.5988597767982995,-3.820695922627753e-05,0.0952887793781902,-0.2040795178903382,0.2002562973691866,0,0,0.0002488800398208,0,17.967081091153933,2.876723110810842,-2.497729456573897,2.041363897879663,0.0043943782825985,0.699917584356037,-2.0931738385171696,1.4852774939271842,0,0,0.0002488800398208,2,-3.668923749424792,4.681860026195926,-0.0093225678020513,1.020395041609255,-2.9131686884926817,2.414448777610363,0,0,0.0002488800398208,2,-1.7239767484585913,2.251908626368308,-0.0111409985243334,0.5071200413194815,-0.9834736361564764,1.4421699644707675,0,0,0.0004977600796416,0,21.13848818785155,23.35013541007505,21.988175740302715,0.6211755733002317,21.18974965812007,23.27824902452276,0,0,0.0049777246820478,0,41.92621589054912,106.32740113391012,63.992160846215086,10.691297370120129,46.74020934074641,92.4232459065006,0,0,0.0024887694279563,2,0.0211797581663885,3.4876504598230302,2.5357446232977936,1.5071748427546818,0.0474434347083902,3.452931689957687,0,0,0.0002488800398208,2,447,67.112879801837,4.755523066327391,89.00699694753204,0.1917623093109872,894.0,True,67.41238519328722,449,1.395,0.0193400760244718,2.03206981161811,large_sync_lag,1,1.99,Apnea,,True
datasets_subject_11_to_20_scidata/GDN0013/GDN0013_3_Apnea.mat,GDN0013,Apnea,2018-02-21_12-22-40,v5,7.32,2000.0,2000.0,1000.0,100.0,200.0,217800,217800,108.9,True,,108.9,108.9,108.9,108.9,13939,13,26,113.56603840520958,500.1878857581394,2414.5323229899905,2045.4011952589328,1.5054089537242104,1.1804688139357074,0.313977671669215,-2421.626567840576,2929.917812347412,84.55284526306517,1408.8528407296394,-2266.9935274124146,2547.098727226258,0,0,0.0009182736455463,2,-2192.136764526367,3457.6525688171387,480.144638925435,1468.9189215227602,-2058.3348512649536,3079.650220870972,0,0,0.0009182736455463,2,-2.61584555367144,11.495622581422587,3.9979877025376815,4.400363186888054,-1.7172087910644875,10.964307300906723,0,0,0.0009182736455463,0,-2.600229587462856,11.426996490892822,3.974120681498333,4.374094081383909,-1.7069574693009717,10.898853034284912,0,0,0.0009182736455463,0,-103.13142876675217,62.26744184171798,0.0213999822662481,4.079419968776495,-11.244383337665976,10.899681214866744,0,0,0.0009182736455463,0,-37738.102471961975,26596.24480691769,-0.0624520477185765,1553.736340457737,-4381.637829069562,4399.755606433731,0,0,0.0009182736455463,0,85.14753599900803,3069.6876609343494,1932.6210342128013,638.4082259477933,431.480837998286,2927.673348573663,0,0,0.0009182736455463,0,-1.2374079050549998,2.0119059281021188,0.0001734028313252,0.1649593621545827,-0.5236009818121814,0.5333796084792618,0,0,0.0009182736455463,0,14.027226078355678,2.245909907983984,-0.1797266338562007,0.1882108628560952,0.0101787455837951,0.0444366929631661,-0.0900402889386479,0.1182108405616925,0,0,0.0009182736455463,0,-0.939165371892114,1.148694764803658,-0.0362314403286612,0.2329783064752884,-0.6609545178540916,0.5843872739004573,0,0,0.0009182736455463,0,-2.862881721877727,2.728832133870182,-0.0177122044935679,0.7279274846990196,-1.9398890906411868,1.861436935170307,0,0,0.0018365472910927,0,23.7097726338138,26.70490629961796,25.169326386689036,1.0199946486500688,23.72516462263359,26.36753249045347,0,0,0.0183654729109274,0,69.83090111984187,115.5960165575393,90.51499392912766,9.163602136941972,74.06725174721244,111.31101198993686,0,0,0.0091827364554637,0,0.0277116417427077,3.4892867622566905,1.3383659947043465,1.6499356905871494,0.0478638068663421,3.4522450460878003,0,0,0.0009182736455463,0,124,68.5567371488332,5.113412075871252,111.77254787744796,0.027089196920096,884.5,True,68.87499200041324,125,1.5035,0.0464556639158226,1.103987852813611,large_sync_lag;weak_radar_ecg_coupling,2,0.78,Apnea,,True
datasets_subject_11_to_20_scidata/GDN0014/GDN0014_3_Apnea.mat,GDN0014,Apnea,2018-02-21_15-24-55,v5,26.24,2000.0,2000.0,1000.0,100.0,200.0,788400,788400,394.2,True,,394.2,394.2,394.2,394.2,50458,49,97,504.42368959591545,1042.771165787353,1662.6117690578678,1206.376420741426,0.0248072743848895,1.3781865597439682,0.1559100979966579,-1342.8301811218262,2358.896255493164,1163.2610712143323,960.3031005764442,-1020.3366899490356,2272.315516471863,0,0,0.0002536783358701,2,-819.025993347168,2506.641864776612,593.194701527654,702.5313043809148,-288.724045753479,2389.000144004822,0,0,0.0002536783358701,2,-2.465716555034417,10.34857857543695,1.007061230374453,3.609673091170452,-2.108585399110087,10.266497683373426,0,0,0.0002536783358701,0,-2.450996822690387,10.286800060602962,1.001049318042155,3.588124214579996,-2.095997653517001,10.205209171641892,0,0,0.0002536783358701,0,-26.725206430920952,25.751933683349662,-0.0007432775343651,3.078631442031789,-8.130370482238323,7.975112098551185,0,0,0.0002536783358701,0,-15184.721364229328,21012.954345450144,0.0732795255495802,1892.731153251783,-5001.792074367456,5010.826404268193,0,0,0.0002536783358701,0,71.95340931503097,2585.578056331929,1077.3956896994043,504.9265356752682,425.75355229210754,2245.671626655666,0,0,0.0002536783358701,0,-0.6239191464694092,0.4424603839926264,4.497047479539921e-05,0.0571975544758928,-0.1370456955894211,0.1458153949942968,0,0,0.0002536783358701,0,12.737796883293347,2.039458412252922,-0.7365491699879156,1.6776810296165934,0.0087339685164809,0.4812115643998466,-0.5707115405448752,1.2067783221938682,0,0,0.0002536783358701,2,-1.0541620694017544,2.9767442299818203,-0.0107714236246859,0.5448534393901955,-0.7872588062231732,1.5340686249549342,0,0,0.0002536783358701,2,-9.473114401139629,7.318381140803622,-0.0832420021306005,0.7433818829595736,-1.7702140923920382,2.4176270449012414,332,0,0.0005077843338377,0,35.71514707100482,40.175300452042336,37.28494424923216,0.8860152615968943,35.85223324407865,39.29803214252851,0,0,0.0050735667174023,0,30.881838806570997,101.32389521401652,59.9112871450899,12.503506014245728,37.19571699973984,90.6816333623355,0,0,0.0025367833587011,0,0.030426727559912,3.479062495426864,2.9668422260375698,1.1862409811965822,0.0477667861702112,3.452050779642002,0,0,0.0002536783358701,2,487,81.51470738718771,4.65431454705813,56.76301558021152,0.0347539760958601,735.5,True,81.08988082837055,531,-1.5035,0.0332900025302817,1.0163420848398217,large_sync_lag;weak_radar_ecg_coupling,2,2.02,Apnea,,True
datasets_subject_11_to_20_scidata/GDN0016/GDN0016_3_Apnea.mat,GDN0016,Apnea,2018-02-23_10-32-14,v5,7.6,2000.0,2000.0,1000.0,100.0,200.0,226750,226750,113.38,True,,113.38,113.38,113.38,113.38,14512,14,27,-1028.298201481196,153.11603665521463,3411.3291102328494,2602.9525402791223,-0.4199419301605491,1.3105613942031549,0.4203172328136516,-3936.831474304199,3999.999523162842,-962.921759187978,2093.0022266944766,-3912.5796127319336,3375.1358461380005,0,0,0.0022050716648291,2,-3443.9077377319336,3999.999523162842,408.1187942319826,1589.674511123663,-3149.152522087097,3999.999523162842,0,0,1.407276736493936,2710,-17.060011499018348,7.966169830903155,-4.416613187289848,8.507243889202268,-16.696695982424515,7.397020518064112,0,0,0.0008820286659316,0,-16.958167350493284,7.918613720903988,-4.390247073207804,8.456457697748606,-16.597020739790022,7.352862092008654,0,0,0.0008820286659316,0,-558.2959035514723,338.35404591917006,-0.0929587487498728,6.768697297263735,-17.160799849262588,12.67056124225951,0,0,0.0008820286659316,0,-196865.86644170855,264090.05013486545,-0.032581057896894,2851.469470380628,-6734.343430726219,6765.834564544202,0,0,0.0008820286659316,0,0.1508906126696847,5023.307045828581,2380.83099871394,1113.2686683038726,315.27784697124,4401.608795266703,0,0,0.0008820286659316,0,-1.529350379595407,1.522131706876374,0.0001461805889827,0.2933678005187352,-0.99036404890923,1.0342872381102786,0,0,0.0008820286659316,0,24.87678107139727,3.9830404653711113,-0.2033836159586917,0.207097002141977,0.0054747098691559,0.0448118828669359,-0.09046913950459,0.1311768243561103,0,0,0.0008820286659316,0,-0.566047035754446,2.076086539408457,-0.018485172215725,0.2647541597354105,-0.4133710270483728,1.1634186605009142,0,0,0.0008820286659316,0,-2.2538963679083737,3.984581609313807,-0.0206882682037677,0.7910588436220339,-1.8246280725913175,2.095923379018308,0,0,0.0017640573318632,0,25.08517991208345,28.072327692543155,26.1781342855742,0.7847265849678674,25.13088715849753,27.766836206912764,0,0,0.0176397953783736,0,67.6694339529644,121.79870016254966,91.19095553202796,11.372885685912092,71.61662973076898,116.82000910782554,0,0,0.0088202866593164,0,0.0357960412422689,3.480249164862121,1.699362548143455,1.6997431325311272,0.048197263495406,3.453352688068718,0,0,0.0008820286659316,0,104,56.05139981753109,8.029506708950205,154.4315239458424,0.055568051016763,1084.0,True,56.05612265195878,104,0.496,0.1079734124831507,0.8133098230622088,iq_clipping;weak_radar_ecg_coupling,2,0.85,Apnea,,True
datasets_subject_11_to_20_scidata/GDN0017/GDN0017_3_Apnea.mat,GDN0017,Apnea,2018-02-23_12-42-23,v5,10.21,2000.0,2000.0,1000.0,100.0,200.0,305700,305700,152.85,True,,152.85,152.85,152.85,152.85,19565,19,37,648.8779008405463,1297.7744858801866,2278.2816562959483,1677.7962832452693,0.7099469495365476,1.3579012416747005,0.3916606074330446,-1967.508316040039,3145.262718200684,463.0632609294683,1006.9814162779514,-1567.2187280654907,2752.901115417481,0,0,0.0006542361792607,2,-1360.2018356323242,3805.293560028076,307.1312097665489,1098.127166873851,-1225.25803565979,3330.200786590576,0,0,0.0006542361792607,2,-0.0240525239133375,16.728930584663967,7.6164569208864386,5.046428741820044,1.4932639469567932,16.61526851901429,0,0,0.0006542361792607,0,-0.0239089361544445,16.62906290923901,7.570988512501716,5.016302780982758,1.484349521828197,16.516079378671,0,0,0.0006542361792607,0,-37.5731551891169,36.40800243160811,0.011015077302424,3.131665882952157,-8.53590398771425,9.237151857693966,0,0,0.0006542361792607,0,-37600.11027881738,24570.650835242384,-0.0702473048409235,1798.850065485338,-5111.707701494219,5129.727549847642,0,0,0.0006542361792607,0,2.4228037340069504,3640.245871793579,1281.795674791343,759.535842104732,87.78704799442174,3149.539099931409,0,0,0.0006542361792607,0,-0.5787515688171714,0.4928434451290818,-6.342147338613953e-05,0.0700633671562325,-0.2080173945847346,0.2082891844444978,0,0,0.0006542361792607,0,16.652971845393456,2.666320073265105,-1.5790226421044309,0.7899324065598623,0.0057798888718666,0.1992190510280825,-1.0108833954018093,0.4590412789109171,0,0,0.0006542361792607,0,-1.6681995260234732,2.05066821178119,-0.0134339157802536,0.3048060095536052,-1.0364214623886794,1.245921267273408,0,0,0.0006542361792607,0,-2.376629032901213,2.638380222173101,-0.014891921327179,0.6307946991137799,-1.4046321639164048,1.7952275984260353,0,0,0.0013084723585214,0,36.45286365062358,39.43111098157634,37.60076282492911,1.013107600193882,36.53639955728669,39.372833821116586,0,0,0.0130847235852142,0,73.71700672713239,129.93736429954683,98.01289974910443,11.11031891953172,79.65240609101528,124.87174430778003,0,0,0.0065423617926071,0,0.0268428431349317,3.483188457915724,2.027211634475836,1.677300493926956,0.0478405712603127,3.4524639024662824,0,0,0.0006542361792607,0,146,68.06252765383663,5.428731337264114,31.699143746885568,0.1144917058937059,890.0,True,67.01440518787982,170,-1.023,0.0716959705511844,1.0271983052326448,large_sync_lag;weak_radar_ecg_coupling,2,1.06,Apnea,,True
datasets_subject_11_to_20_scidata/GDN0018/GDN0018_3_Apnea.mat,GDN0018,Apnea,2018-03-15_12-11-35,v5,6.44,2000.0,2000.0,1000.0,100.0,200.0,190850,190850,95.42,True,,95.42,95.42,95.43,95.42,12214,11,22,-381.34937523411736,438.76455793775455,1909.4447028858087,1180.3418819231158,-1.1186802071201845,1.617704778699181,0.1854623398716121,-2753.5524368286133,2198.627471923828,-209.26175398323156,842.7815863526889,-1840.057682991028,1488.788871765137,0,0,0.0010479434110558,2,-2608.5500717163086,2629.067897796631,6.081681752473483,1319.7311370060106,-1803.8251972198489,2339.34268951416,0,0,0.0010479434110558,2,-6.202689806305556,13.20835153086644,6.487406484693431,6.763018529257787,-4.267639412715798,13.10286405727215,0,0,0.0010479434110558,0,-6.165661246159238,13.129500862145717,6.448678234738407,6.722644941959143,-4.242162636089648,13.024643123292748,0,0,0.0010479434110558,0,-46.225264483019146,130.53927994186688,0.0935916684375499,3.4786273333747904,-8.187154945396005,9.112176054921663,0,0,0.0010479434110558,0,-61491.476219490985,40569.51807892299,-0.0978666861840563,1365.7682127457615,-3176.4162196248085,3145.3287948303505,0,0,0.0010479434110558,0,69.20164545224776,3098.240114454968,1482.561835694231,503.9657524289551,694.6086983169255,2438.784126766016,0,0,0.0010479434110558,0,-0.8019929057746289,1.2692154989582347,-1.2916240142864938e-06,0.1345821325558246,-0.3653593524913816,0.4427669001863358,0,0,0.0010479434110558,0,19.295162108304957,3.089363179372037,-0.825568544810575,0.786864574368135,0.008112377115369,0.3027771882158672,-0.6556960655292282,0.6098125739428681,0,0,0.0010479434110558,0,-1.3901282092683656,2.131787953216425,-0.010179864310111,0.5640822429851094,-1.1891511558172083,1.069234700966513,0,0,0.0010479434110558,0,-2.872535079573709,3.1556151866025197,-0.0198131364198319,0.8382873833451756,-1.7450600333238109,2.2590016731099416,0,0,0.0020958868221116,0,30.088496498437813,32.53689971159409,31.4563341276343,0.7737250835558583,30.246549395174835,32.422280687031375,0,0,0.020957770093262,0,66.01705978061375,122.94630325566418,92.94101348267765,10.838012836020988,69.11138327388619,118.79738003073136,0,0,0.010479434110558,0,0.025782252615063,3.486080313182751,1.0260806884188245,1.5406200874883056,0.0393342371449341,3.451331279149378,0,0,0.0010479434110558,0,117,71.8916084249093,12.077163671114402,133.83269337054685,0.0282946203543115,870.0,True,70.48405069321245,111,-1.674,0.0632798332780192,0.8776819404866946,large_sync_lag;weak_radar_ecg_coupling,2,0.83,Apnea,,True
datasets_subject_11_to_20_scidata/GDN0019/GDN0019_3_Apnea.mat,GDN0019,Apnea,2018-03-21_10-31-58,v5,8.37,2000.0,2000.0,1000.0,100.0,200.0,248500,248500,124.25,True,,124.25,124.25,124.25,124.25,15904,15,30,-712.9579608416128,700.3157718821949,1721.9934664349353,1115.2700767448482,-0.8057708417986661,1.5440147658771026,0.185522214214372,-2237.514019012451,1052.5102615356443,-812.5005138807853,814.5797752797904,-2123.316173553467,886.4208126068116,0,0,0.000804828973843,2,-1071.1297988891602,2570.6591606140137,1243.833264878578,810.6887297365752,-667.1712827682495,2407.5272274017343,0,0,0.000804828973843,2,-2.931606156917247,17.003733654862742,7.647170461762608,6.489509893998796,-2.5118037197491234,15.123814483949966,0,0,0.000804828973843,0,-2.9141051761659007,16.902225471475756,7.601518700956404,6.450769087198206,-2.496808858162151,15.033528963998382,0,0,0.000804828973843,0,-29.874233515497508,41.110825163471816,0.0130329238112844,3.1181598756588667,-8.683436079762952,9.934573516925903,0,0,0.000804828973843,0,-9658.878643463133,10014.108028438292,-0.0177124217574083,1166.6016569236576,-3099.664438157983,3097.6874097663763,0,0,0.000804828973843,0,240.48617970326384,2459.925372526322,1080.3360786540677,391.9571200719907,475.0840232050519,2164.2741567352205,0,0,0.000804828973843,0,-0.9601488947626942,0.7768080865882364,0.0001472818496595,0.0984329412444355,-0.2537018464602273,0.2987156314395675,0,0,0.000804828973843,0,19.816330647641657,3.17280787326144,-2.8596475411532345,2.053901689183616,0.0158413549261859,1.0792632500726442,-2.23966093344738,1.8790231250844267,0,0,0.000804828973843,0,-4.498826140182806,5.7087783836950114,0.0025982018286168,2.074823496807827,-3.687804209249566,4.07502760964716,0,0,0.000804828973843,0,-3.21567875162175,3.629396516849385,-0.0135705050821882,0.8910559084215629,-2.184662478671892,2.4906340720002107,0,0,0.0016096579476861,0,30.99270508947099,35.23762896202515,33.158708156682735,1.6494588995500463,31.03605050783789,35.17856573119428,0,0,0.0160965794768611,0,70.86882095812318,121.26598572951504,90.55323133948242,9.373081879055,73.26667278937057,114.4330351564472,0,0,0.0080482897384305,0,0.0168442864761258,3.467497016865202,1.5267221605330803,1.6872968270028823,0.0387373592074753,3.452720891298401,0,0,0.000804828973843,0,133,73.38556877428728,23.883544198227703,216.27639723280024,0.0201208053151119,876.5,True,67.70936552902945,139,0.8525,0.0479615664177497,1.1946504459998102,weak_radar_ecg_coupling,1,0.98,Apnea,,True
datasets_subject_11_to_20_scidata/GDN0020/GDN0020_3_Apnea.mat,GDN0020,Apnea,2018-03-21_13-01-13,v5,16.48,2000.0,2000.0,1000.0,100.0,200.0,493550,493550,246.78,True,,246.78,246.78,246.78,246.78,31587,30,60,-796.1005394903274,423.8417154261337,1960.00074195279,1720.794063193228,1.1563044582377016,1.139009474681516,0.1459200127079708,-2888.4592056274414,1327.8594017028809,-134.45817918983252,1005.1941562047164,-2656.2993669509888,1116.4974212646491,0,0,0.0004052274338972,2,-2008.852481842041,2806.7917823791504,-363.32476730972735,1075.3219411962166,-1868.9127826690676,2475.868978500368,0,0,0.0004052274338972,2,-2.859317057918552,5.818689252250399,-0.6264206331052559,2.0304288627672733,-2.5354291702546434,3.784936949265525,0,0,0.0004052274338972,0,-2.8422476256298537,5.783953082672701,-0.6226810532110215,2.0183076928207497,-2.520293270433881,3.762341789769813,0,0,0.0004052274338972,0,-14.01029002338646,13.801352856674724,0.0044343382996339,1.6770076641395055,-4.209136777470978,4.170231402001758,0,0,0.0004052274338972,0,-6804.067750204151,6252.867952432591,0.0341749082177146,814.1995089964837,-1957.21453321914,1960.9750852903264,0,0,0.0004052274338972,0,429.98432496803525,3472.9824189612505,1332.2829172106417,625.9031853208719,635.3858287879966,3042.9527842488123,0,0,0.0004052274338972,0,-0.3284681663827915,0.3189833265896777,-5.260558296408587e-05,0.0463359904446669,-0.1364234049629808,0.1201794562672924,0,0,0.0004052274338972,0,8.626200708302555,1.381147600446048,-1.283671140348598,0.987083477118988,0.0070672026470412,0.3616326083927013,-1.022991772893604,0.6199188241745066,0,0,0.0004052274338972,0,-1.3509195080186474,2.337942578750868,-0.0118416582654787,0.6059727310492952,-1.1182280970637362,1.2171100091874678,0,0,0.0004052274338972,0,-2.078654562171107,3.295285110348652,-0.0122915678550529,0.7349686937127634,-1.1897319351245514,2.316571385308062,0,0,0.0008104515836223,2,32.44213289127562,34.31893730861905,33.02732673407701,0.4198393259378959,32.52487034468638,33.997372450493295,0,0,0.0081043844719993,0,5.292760931579276,195.5539270625468,101.56512818351088,13.841787033684522,79.1444634721139,135.6188954616312,0,0,0.0040521922359996,2,0.0186136014677471,3.477719431264632,2.595279405028715,1.4706256785459078,0.0390070929449303,3.450255675058151,0,0,0.0004052274338972,0,254,62.45136129945613,7.984697303136243,90.9607559719252,0.02674506482639,1010.0,True,62.45026662317207,254,1.457,0.0499664958415063,1.4844925367033617,large_sync_lag,1,1.52,Apnea,,True
datasets_subject_21_to_30_scidata/GDN0021/GDN0021_3_Apnea.mat,GDN0021,Apnea,2018-03-26_12-41-45,v5,7.01,2000.0,2000.0,1000.0,100.0,200.0,209250,209250,104.62,True,,104.62,104.62,104.63,104.62,13392,13,25,32.99574079603292,953.1085214065952,2495.119961048826,1112.674452384337,-0.552426663939519,2.242452817804941,0.2577941876314998,-2525.237560272217,1672.3484992980957,-426.9000164952614,928.8364246026996,-2379.4097900390625,1470.8190441131592,0,0,0.0009557945041816,2,-885.9772682189941,2892.7364349365234,829.6008718210309,1003.4033038304256,-804.1517686843872,2754.025268554688,0,0,0.0009557945041816,2,-1.2441965141625837,23.870139564577304,10.67931503392442,9.13836153359353,-1.162332691597901,23.601433012509933,0,0,0.0009557945041816,0,-1.236768961456067,23.727640596199198,10.615562102308669,9.08380772222262,-1.1553938461413529,23.460538157352968,0,0,0.0009557945041816,0,-44.8514808041748,89.18010364857355,0.0240216252882784,3.753763909670101,-10.161812241410248,11.898930580108717,0,0,0.0009557945041816,0,-22285.13660362188,25146.50299245119,-0.0234914005946669,1473.44975901439,-4417.824733599711,4423.164893169471,0,0,0.0009557945041816,0,257.93304477860545,2369.6634996781586,1271.887916919714,501.8529870392032,528.5155777134462,2279.2506473966428,0,0,0.0009557945041816,0,-1.3125917992316052,0.990756794023124,7.455910688990658e-05,0.1562169300781373,-0.5571608197853603,0.4523933916377938,0,0,0.0009557945041816,0,24.964409557655262,3.997070729402581,-0.6176205550852282,0.8769080358523389,0.0082528335387627,0.2113209415138209,-0.3559204221768227,0.4545660629309954,0,0,0.0009557945041816,0,-0.9346631648638244,1.6952029862408458,-0.0091522971602151,0.3868660713776893,-0.603548387593128,0.9427322610767134,0,0,0.0009557945041816,0,-2.1100563008894886,2.7682192222491744,-0.0150673580576981,0.6186125280695134,-1.182854009566161,1.7717297335910025,0,0,0.0019115890083632,0,29.457504289653148,32.07001939870967,30.442653901086587,0.9101960754309611,29.479540451619577,32.00516241215021,0,0,0.0191149765841536,0,76.32405311103793,136.34572587519176,98.79807414436554,11.965014034941968,80.6509594543192,131.23677272961075,0,0,0.009557945041816,0,0.0107907826928703,3.492541855576543,2.0913656560970804,1.6643247379359385,0.0386091913663985,3.450415965901765,0,0,0.0009557945041816,0,87,71.64408136331743,4.313924931300691,35.605602488533016,0.0272402735496943,836.5,True,69.58604202754928,120,-0.6045,0.1154312019599845,1.7303661938164745,strong_iq_imbalance,1,0.79,Apnea,,True
datasets_subject_21_to_30_scidata/GDN0022/GDN0022_3_Apnea.mat,GDN0022,Apnea,2018-03-27_11-57-54,v5,10.27,2000.0,2000.0,1000.0,100.0,200.0,307450,307450,153.72,True,,153.72,153.72,153.73,153.72,19677,19,37,2.0481472438222568,1110.447333551322,1176.663029835394,935.4079046431162,-1.1195937188296303,1.2579143537217845,0.5172705763152714,-1971.1155891418457,1324.4099617004397,-177.3233265038486,579.7309341494491,-1372.139234542847,1146.2584304809577,0,0,0.0006505122784192,2,-452.1150588989258,3134.5810890197754,880.8718275779592,561.4142754230876,-127.57850646972656,2381.277732849121,0,0,0.0006505122784192,2,-8.312398221054593,7.718438721456104,0.0538904900582394,4.961744863729281,-8.22504950763792,7.465259349436708,0,0,0.0006505122784192,0,-8.262775211183042,7.672361506351366,0.0535687768475597,4.93212444519239,-8.17594794849008,7.4206935540381584,0,0,0.0006505122784192,0,-143.88142291824107,176.5580400517077,-0.0042519763368013,4.229582893996006,-10.571362486769756,10.440365634703255,0,0,0.0006505122784192,0,-103896.26263728856,95813.55915934785,-0.0578419789426191,2523.1164204595457,-6634.978778051043,6590.678147237422,0,0,0.0006505122784192,0,7.655964225154169,2372.7082707512686,719.1446398337156,366.20340202824326,113.27506038209025,1728.8950085634942,0,0,0.0006505122784192,0,-0.922972393876131,0.9685919240613912,7.066812391267516e-05,0.0889541642857082,-0.2206661860364409,0.2109931862185356,0,0,0.0006505122784192,0,15.935136717534409,2.5513869413007435,-2.924282567522787,1.6083371790184284,0.0078273097337897,0.3084640948509313,-0.8933012093913684,0.6923893831256022,0,0,0.0006505122784192,0,-2.5963046963531804,1.714695890569638,-0.0060453732557949,0.2214517361311685,-0.7625900093599779,0.5687598513254484,0,0,0.0006505122784192,0,-11.442085693666003,10.793505585266844,-0.022187229433598,0.8119852500149164,-1.7713330828394391,1.7062837403891338,927,0,0.0013089176559902,0,37.88614117265888,41.46660020360449,39.84557996957384,0.8335433369745587,38.67449043153563,41.40611487741107,0,0,0.013009822415924,0,70.39295605412626,118.7308987155118,91.03422355053507,10.16263984414481,73.01065749581511,113.7807489401584,0,0,0.0065051227841925,0,0.0108813260251051,3.4666855011120266,1.8752155484506603,1.69524217816885,0.038555911137864,3.4498388043161725,0,0,0.0006505122784192,0,151,58.90773353737452,3.420237671280433,20.19697465549975,0.2198738652589535,1023.25,True,59.04769909846299,152,-0.186,0.0333494900640298,1.0302790992507025,weak_radar_ecg_coupling,1,1.06,Apnea,,True
datasets_subject_21_to_30_scidata/GDN0023/GDN0023_3_Apnea.mat,GDN0023,Apnea,2018-03-28_12-13-16,v5,19.4,2000.0,2000.0,1000.0,100.0,200.0,583350,583350,291.68,True,,291.68,291.68,291.68,291.68,37334,36,71,-36.98728656366296,955.6458635079008,1111.3033817139942,951.7516417560568,-1.3658162865339554,1.1676400995364211,0.263168844217415,-1568.64595413208,1078.3166885375977,-39.016964384284805,645.9679276775854,-1290.0315856933594,972.7406358718874,0,0,0.0003428473472186,2,-326.2605667114258,2364.809036254883,1172.2983996743685,703.6420219206036,-218.9471864700317,2173.829817771912,0,0,0.0003428473472186,2,-7.28769188484292,16.7401601169588,1.221071313471477,8.291189410228904,-6.955096277929035,16.706255971538408,0,0,0.0003428473472186,0,-7.244186124324087,16.640225403938064,1.2137818126281747,8.241693011835892,-6.913576032859078,16.606523658077716,0,0,0.0003428473472186,0,-520.6514401884892,126.38264780948066,-0.030878838615793,3.173293203089654,-7.354561904948936,7.352053451199276,0,0,0.0003428473472186,0,-170997.8106248855,152338.4290370826,0.0041242687182387,1505.330885982101,-3394.1081630467083,3414.7566894748684,0,0,0.0003428473472186,0,42.7764032960164,1597.336878996975,915.0420542090887,274.01587112683904,345.53120278804886,1427.286489604867,0,0,0.0003428473472186,0,-1.7481169979774658,0.9011516403667372,-6.919137427550197e-05,0.1050713953871189,-0.275364118392606,0.2548486751929478,0,0,0.0003428473472186,0,23.884411528262152,3.824151417967237,-0.9585277707032333,0.8040620442883469,0.0089193970366894,0.3596329325193072,-0.8035337094822885,0.5930930934575143,0,0,0.0003428473472186,0,-1.2897706693993278,1.1048289495514778,0.0070793102370372,0.2628663267140381,-0.6944640021975886,0.6421050948096902,0,0,0.0003428473472186,0,-2.0861020012654428,3.815629056091296,-0.0115101680023334,0.8777667278558827,-1.3785070496572418,2.7454070997023683,0,0,0.0006856923435592,2,35.551245878649446,38.70187120721753,36.68479009592936,0.9104232586053888,35.67421677961045,38.57708046888227,0,0,0.0068568294020844,2,63.95477700604251,130.9506093202372,85.35984960241132,11.527299654694282,68.90890415645667,120.92314500539176,0,0,0.0034284147010422,0,0.0231219755268602,3.466639202995119,2.471698083162339,1.5364081797625913,0.0397555733486851,3.4497550807862702,0,0,0.0003428473472186,0,258,53.68698706107578,7.096877439779906,92.09952369922983,0.0334276736567646,1160.0,True,53.649920849964914,257,0.2635,0.0411102341580789,1.640217636731886,,0,1.72,Apnea,,True
datasets_subject_21_to_30_scidata/GDN0025/GDN0025_3_Apnea.mat,GDN0025_no02,Apnea,2018-07-03_13-00-13,v5,22.92,2000.0,2000.0,1000.0,100.0,200.0,683300,683300,341.65,True,,341.65,341.65,341.66,341.65,43731,42,84,-894.7301278280032,631.440839223754,2267.3168933611614,1737.4577268984424,-0.4744650305690889,1.3049623356353983,0.2111678121072321,-3490.9820556640625,2299.1175651550293,-495.0671898071298,1373.7081579200635,-3321.370153427124,1697.7545881271365,0,0,0.0002926972047416,2,-2056.595802307129,3304.281711578369,-71.45151650453755,1070.673394683531,-1499.4370031356812,2744.135036468506,0,0,0.0002926972047416,2,-9.35423732765496,17.508040634245994,0.1026364267763061,10.157832680796226,-8.724977917222075,17.409159486051397,0,0,0.0002926972047416,0,-9.29839478992917,17.403521859986107,0.1020237120959386,10.097192872886644,-8.672891906205576,17.30523100836567,0,0,0.0002926972047416,0,-323.05911141017555,75.3441000673472,-0.0112303696332904,3.2845487995737623,-8.186075763213639,7.904416962030426,0,0,0.0002926972047416,0,-135755.23817502277,138207.3699593905,0.0125305329536902,1271.308783185975,-2634.252261306031,2636.20043540718,0,0,0.0002926972047416,0,6.442702150879012,3686.280258334074,1666.3486269412788,506.6536042605477,542.9395060225424,3265.809195492156,0,0,0.0002926972047416,0,-1.6527145759704358,0.962906152066762,-0.0001356852680045,0.1366708884808277,-0.3385852898646945,0.325486870807704,0,0,0.0002926972047416,0,26.70191664991528,4.275264320345021,-1.1487634846636372,1.2752930331920098,0.0067040244424113,0.2857974734993277,-0.916793375226907,0.5244286959192,0,0,0.0002926972047416,0,-1.6142181761194585,2.754691765699482,-0.0092992441968107,0.469393989748488,-1.351559402296861,1.2073213652029016,0,0,0.0002926972047416,0,-6.452456727263109,10.94680694767434,-0.0581202000679541,0.6357348731716469,-1.135010303324749,2.697415473086158,411,0,0.0005860994786645,0,32.575007227933774,38.11209241016691,35.35467096344513,1.8258902259301637,32.75775833095506,37.84441967285784,0,0,0.0058537727565415,0,88.29442820680678,158.1272841251554,109.12473461153483,13.766920592672562,91.18296491006647,149.46611676366624,0,0,0.0029269720474169,0,0.0233603749921031,3.486825723218113,2.372996346717833,1.579925988508878,0.0416169690651706,3.4549607638610675,0,0,0.0002926972047416,0,316,74.89259590610119,6.361957119693664,39.36715843109961,0.1709354177307445,802.25,True,72.9280617835782,411,1.0075,0.0353608079127199,3.2225579139996725,large_sync_lag,1,1.93,Apnea,,True
datasets_subject_21_to_30_scidata/GDN0027/GDN0027_3_Apnea.mat,GDN0027,Apnea,2018-05-22_12-15-28,v5,11.26,2000.0,2000.0,1000.0,100.0,200.0,335300,335300,167.65,True,,167.65,167.65,167.65,167.65,21459,20,40,-8.406663284371234,690.6720074386634,3076.2330857169973,2635.728084922684,-1.059019287988884,1.16712839359802,0.2330755946694357,-3919.844150543213,3784.203052520752,1173.3642981651822,1870.1498713413264,-3361.0293865203857,2969.085702896118,0,0,0.0005964807634953,2,-3277.639865875244,3999.999523162842,814.2346187694515,1533.9570003114372,-2610.289134979248,3857.0302486419687,0,0,0.0074560095436922,11,-6.005918690651619,20.833169535911665,10.365364457905596,9.872183275197871,-5.631170604971142,20.6049752409829,0,0,0.0005964807634953,0,-5.970064806544015,20.708800545153053,10.303485735407191,9.813248725253182,-5.597553876430504,20.481968515054337,0,0,0.0005964807634953,0,-16.637648494302084,15.944677134778658,-0.014666756476839,2.484283099683196,-7.567565987293775,6.518126060940294,0,0,0.0005964807634953,0,-5234.549015847806,6835.338137235958,-0.0953122310217594,585.5459170833687,-1444.7273817641294,1451.5825854851164,0,0,0.0005964807634953,0,7.532382378658001,5395.294255926271,2203.779408182088,996.915713666432,533.0402590525591,4855.261082218595,0,0,0.0005964807634953,0,-0.7061838861908647,0.6532534052881902,5.403988768165082e-06,0.1376753042316482,-0.3118103056645034,0.3019694538839706,0,0,0.0005964807634953,0,26.67886535169707,4.271573559337038,-1.911607489870532,3.3798514755529845,0.0060217415298103,0.5247950443504205,-1.532372188768121,0.7730498639612211,0,0,0.0005964807634953,0,-3.767033707143308,5.067905017748561,-0.1682430114577654,0.8374208814139836,-2.3591734660353008,2.3361300119582813,0,0,0.0005964807634953,0,-11.403494417654018,10.131740725116686,0.0971479662949503,1.3788713254389418,-3.9442835427328857,6.885150364831357,4901,0,0.0012288861989935,0,35.45834594378919,38.88373199300509,37.284055815174376,0.97827155466668,35.51672994796498,38.71516445527188,0,0,0.0119296152699075,0,77.32379365200269,154.7939034853984,109.06886903700808,14.188129940903725,82.81254180927162,145.27278217819162,0,0,0.0059648076349537,0,0.0185686174609431,3.4560134518772374,1.3669691175376726,1.657437682804966,0.0403561433399721,3.449240909855451,0,0,0.0005964807634953,0,174,86.26706705854545,40.52726355100786,291.77136666473183,0.0351924700043841,823.5,True,64.38165093085331,172,0.0465,0.1118793383439946,2.362889603074944,,0,1.14,Apnea,,True
datasets_subject_21_to_30_scidata/GDN0028/GDN0028_3_Apnea.mat,GDN0028,Apnea,2018-05-23_12-21-35,v5,16.21,2000.0,2000.0,1000.0,100.0,200.0,484300,484300,242.15,True,,242.15,242.15,242.16,242.15,30995,30,59,-369.1827491530552,769.9177311967579,2077.6335616042547,1600.1754184269926,-1.3009765532865298,1.2983786262924937,0.139956340221179,-2529.6287536621094,1918.302059173584,-623.1316257364957,946.105604611395,-2289.229898452759,1552.9406070709235,0,0,0.00041296716911,2,-2512.3391151428223,3082.332134246826,1325.9714665591114,1513.2556847409608,-1395.9444046020508,3001.230721473694,0,0,0.00041296716911,2,-6.143776190415925,17.156080984419177,6.422705737367087,7.380923904903849,-3.4041854085641488,15.87823926705679,0,0,0.00041296716911,0,-6.107099330328376,17.05366332426779,6.384363735247871,7.336861571741502,-3.383863243811996,15.783450013349448,0,0,0.00041296716911,0,-21.54814279943821,21.050050799357564,0.002625965774369,2.836583196154731,-7.423395759125758,7.634147549462799,0,0,0.00041296716911,0,-6238.699831502116,4926.173904159776,-0.0364046424416244,857.4027274386044,-2101.506385904658,2098.202119976244,0,0,0.00041296716911,0,600.4601491830779,3991.9790711162686,1715.0386871927597,493.6606971494345,822.8754517048716,2928.0476484123624,0,0,0.00041296716911,0,-1.1001227011000791,0.8866750735063318,9.640864922607637e-06,0.1223832031833593,-0.3058042717939646,0.3172612856783074,0,0,0.00041296716911,0,23.16076265459617,3.7082874427101697,-0.5342050549744238,0.8062624447582667,0.00919301957782,0.2543971437792026,-0.4383042093373067,0.4547049761843812,0,0,0.00041296716911,0,-1.2819009021007697,2.139704168337428,-0.0643275244678982,0.3072892698419259,-0.856888232670585,1.0776881941386236,0,0,0.00041296716911,0,-5.054950725831698,2.742229586323891,-0.0359753068384987,0.554351570155563,-1.053833605980921,1.804228457232668,0,0,0.0008259343382201,0,35.20664300976275,37.57663404034042,36.02318119515399,0.5720415414852299,35.28041120180225,37.2548833457299,0,0,0.0082590023125206,0,47.6911136511254,122.91853019674716,75.95439827766681,13.360610854042402,52.20658572462324,110.83815659216847,0,0,0.0041296716911005,0,0.0232196158197816,3.474279240091924,1.836969006502286,1.6980267653772785,0.0402831535454504,3.447834768988487,0,0,0.00041296716911,0,220,68.28880200188027,11.663829817287912,194.9594088945308,0.0274623734511118,906.0,True,67.53004513582327,266,-0.713,0.052187024373354,1.8909333778124315,,0,1.44,Apnea,,True
datasets_subject_21_to_30_scidata/GDN0029/GDN0029_3_Apnea.mat,GDN0029,Apnea,2018-05-24_10-04-15,v5,11.07,2000.0,2000.0,1000.0,100.0,200.0,331000,331000,165.5,True,,165.5,165.5,165.5,165.5,21184,20,40,-281.7029969563781,251.0468203055349,1163.679776007068,657.6115514963109,-1.0239344447781755,1.7695549498168994,0.1036086477062679,-1630.8493614196775,1213.6049270629885,-160.707694348972,471.3936510982221,-1121.5663480758667,661.539649963379,0,0,0.0006042296072507,2,-1461.9646072387695,1719.7957038879397,456.554092081652,768.813599374011,-807.4493598937988,1349.772539138794,0,0,0.0006042296072507,3,-0.9057039319231864,9.591657318773173,3.979959489770032,3.669403162135101,-0.8392058129880127,9.405726995899707,0,0,0.0006042296072507,0,-0.9002970981840752,9.53439744103916,3.956200092806952,3.647497711446259,-0.8341959569591368,9.349577077289648,0,0,0.0006042296072507,0,-25.589554527321454,21.204902058227862,-0.0137760278122071,2.5317931610758504,-6.251139974023609,6.668836238861148,0,0,0.0006042296072507,0,-15146.075770351164,15032.667452456157,0.0542460067318349,1364.4783790883932,-3428.622847617224,3435.758648565108,0,0,0.0006042296072507,0,106.12813376951662,1966.453216074888,858.5602649304908,275.9720934453707,227.13193740006523,1285.6330131498307,0,0,0.0006042296072507,0,-0.4257201655317785,0.5787642971825099,-6.62401596691042e-05,0.0820036884602504,-0.2233980348352755,0.2081571841810975,0,0,0.0006042296072507,0,10.434694539223234,1.6707069324696462,-0.777681910961127,0.5109571889396706,0.0041767100511476,0.2851829433952753,-0.6359988265636953,0.3803942219334615,0,0,0.0006042296072507,0,-1.3576722887910384,1.6904573753795515,-0.0008255904952623,0.3184701047758897,-0.7325409141143647,0.956011166859144,0,0,0.0006042296072507,0,-2.478093864223459,2.9614463140902907,0.0076395034205508,0.6925769098857963,-1.703220080303232,1.996410117927856,0,0,0.0012084592145015,0,29.61562140663246,33.027970101516274,30.92027248258879,0.9265813323734416,29.644622880383174,32.53427239423115,0,0,0.0120845921450151,0,67.49889496796622,117.36326294415034,85.73419935824879,9.258681060980498,69.87098155856962,111.23453990772008,0,0,0.0060422960725075,0,0.0205478883938433,3.4576283088766404,1.4925586634966777,1.6824350497569165,0.0399002310537169,3.449867239115555,0,0,0.0006042296072507,0,181,67.48463452210181,5.9037290631554376,91.57768238011028,0.0320242659343381,888.5,True,67.61039118510674,186,-0.0775,0.0408494078565723,1.1206814620740964,weak_radar_ecg_coupling,1,1.07,Apnea,,True
datasets_subject_21_to_30_scidata/GDN0030/GDN0030_3_Apnea.mat,GDN0030,Apnea,2018-05-24_15-27-23,v5,11.31,2000.0,2000.0,1000.0,100.0,200.0,338050,338050,169.03,True,,169.03,169.03,169.03,169.03,21635,21,41,-949.0439009205764,1175.4522980625125,2055.4309146909977,1356.4981893407885,-1.0427393098598057,1.5152478129660214,0.0677498771719066,-2713.404655456543,1961.05432510376,-604.9568725228221,966.511529360068,-2498.083415031433,665.4246520996096,0,0,0.0005916284573287,2,-1631.546974182129,3786.1099243164062,1350.7987919271284,1444.1321053817976,-779.3962955474854,3155.089154243469,0,0,0.0005916284573287,2,-5.941495187109553,17.617334023390605,2.618563668187774,5.05628600043332,-5.842986750455191,13.274670995133745,0,0,0.0005916284573287,0,-5.906025895759325,17.51216279399272,2.6029314754919715,5.026101194142717,-5.808105530681243,13.195424415228008,0,0,0.0005916284573287,0,-18.9224902819451,24.338698285471764,0.0032894221400734,2.647392156591633,-6.524017866789207,8.693185265054618,0,0,0.0005916284573287,0,-6381.446436649305,6966.599409047398,0.0292998758005672,984.262285756092,-2419.9062768614517,2399.0886959999566,0,0,0.0005916284573287,0,858.4094476142491,3222.206032149832,1698.0016565748267,369.3947054974454,917.3741000689428,2358.1463539995366,0,0,0.0005916284573287,0,-0.4796039286292392,0.4767637928607278,-1.1697832176663593e-05,0.0651290918800826,-0.2065220815375436,0.1842273380563838,0,0,0.0005916284573287,0,23.418188689752043,3.749504122308834,-1.1494541471770874,0.8140363716495526,0.0083227977622166,0.2402549377836175,-0.6766067889721438,0.4415735515877633,0,0,0.0005916284573287,0,-0.6813107863509218,1.279344589878851,-0.0093266067622204,0.2104176259501822,-0.378005091481716,0.658597052613847,0,0,0.0005916284573287,0,-7.632776411290481,5.600539962595918,0.0056703601487806,0.6752416269988537,-1.6275401140876613,1.9084375942415224,0,0,0.0011832569146575,0,34.87909511089488,37.06260755941704,35.74304486318842,0.5962132814461649,35.04210862432591,36.763197290107655,0,0,0.0118322191326983,0,68.28342197484216,131.3623524592779,90.53805613973462,10.277027315942776,71.88477646227689,118.93238337032952,0,0,0.0059162845732879,0,0.019153881343642,3.4724132492783912,2.110448670545388,1.660263674111299,0.0400796198181238,3.451317590902961,0,0,0.0005916284573287,0,116,60.39319685063543,5.82003911556403,97.5899446525988,0.1387372836482285,982.0,True,58.0446338127359,161,-1.1625,0.0158543444586748,1.5058709986993757,large_sync_lag,1,1.1,Apnea,,True
datasets_subject_01_to_10_scidata/GDN0006/GDN0006_3_Apnea.mat,GND0006,Apnea,2018-02-16_13-27-16,v5,9.6,2000.0,2000.0,1000.0,100.0,200.0,287350,287350,143.68,True,,143.68,143.68,143.68,143.68,18390,17,34,2409.2262768199366,908.146440571826,2862.9876310547647,1877.7522523533364,0.613328188231574,1.524688694936544,0.5781132198751405,-2215.688705444336,3999.999523162842,1827.9275667603083,840.0440007208764,-676.0164976119995,3971.7279148101807,0,0,0.353923786323299,696,-2621.689319610596,3944.2076683044434,2046.3115339808533,903.5598821389716,-1328.046326637268,3288.0646324157715,0,0,0.0006960153123368,2,-2.6748984749700977,14.1493860740738,7.122632068665879,5.764586302081631,-1.248537701857173,14.083787147082845,0,0,0.0006960153123368,2,-2.658929977083095,14.064917656397215,7.080111675386406,5.730173114050161,-1.24108423330855,13.99971033915775,0,0,0.0006960153123368,2,-121.29787307032912,85.42603102299563,0.0472901320853163,4.13046444874167,-10.04862447272486,11.089982030713044,0,0,0.0006960153123368,0,-65140.20486388408,60880.00935322797,-0.1064357645179779,2277.868935750937,-5739.834515406278,5705.479146449813,0,0,0.0006960153123368,0,47.72861927971,4877.480731672889,1013.8396289219804,703.010377295719,209.46878664604688,3635.715420458042,0,0,0.0006960153123368,2,-1.2223266771872372,0.9411590857161256,-6.416315121081598e-05,0.1219730263637182,-0.3606618659542107,0.396743737016565,0,0,0.0006960153123368,0,16.72384763348031,2.677668049964936,-0.195170386785017,0.601108476783413,0.0069675274358597,0.0754699469435771,-0.1130090084907464,0.2710641539200212,0,0,0.0006960153123368,0,-2.003716256008362,2.4782749172582865,-0.0028944741293984,0.6964339655154697,-1.3270188470582254,1.3657091151330398,0,0,0.0006960153123368,0,-3.8041978752122896,3.04872763717032,-0.0059525668721415,0.6975305767654956,-1.779135141452977,1.994351346323775,0,0,0.0013920306246737,0,29.28487952580739,32.71417625160454,30.945056718010456,1.3823416052498982,29.3574028199105,32.679381117620856,0,0,0.0139198218262806,0,56.31837894544717,95.91561745245504,75.88053392814433,8.932401622144026,60.20943142643704,93.80598592044178,0,0,0.0069601531233687,0,0.033170103550174,3.5060591936096124,1.5285901193307212,1.6856937715234894,0.0479200166116301,3.451616257153704,0,0,0.0006960153123368,0,91,62.72709022881689,3.501162518160341,26.612913389760784,0.0845661547456229,982.5,True,68.62395374853631,160,0.7595,0.128709591463577,1.29299301177191,weak_radar_ecg_coupling,1,1.01,Apnea,,True
datasets_subject_01_to_10_scidata/GDN0001/GDN0001_1_Resting.mat,GDN0001,Resting,2018-02-06_10-57-16,v5,40.07,2000.0,2000.0,1000.0,100.0,200.0,1215200,1215200,607.6,True,,607.6,607.6,607.6,607.6,77773,75,150,632.3258954169935,-27.50509551189907,1639.721331085907,1405.5104189667609,0.1573829500149264,1.1666376207238098,0.3215752378857804,-1120.929718017578,3199.366569519043,1603.37031742591,508.5071731452885,605.160665512085,2608.0700731277466,0,0,0.0001645819618169,2,-1785.625457763672,2009.7851753234863,-705.5556508469064,682.249232198236,-1551.8365287780762,1232.2558832168584,0,0,0.0001645819618169,2,-1.8810052403423865,3.1488692107693472,-0.7782099239029978,0.6514897135076019,-1.6478452199407094,1.3015901651712736,0,0,0.0001645819618169,0,-1.869776093334785,3.130071222057204,-0.773564198600983,0.6476004772577415,-1.6380079819449662,1.2938199862292434,0,0,0.0001645819618169,0,-32.93061721782506,27.587722463688557,8.263910091470412e-05,3.188133798829507,-8.611143378881499,8.677987528099377,0,0,0.0001645819618169,0,-16721.892385250467,18721.31333637377,-0.0269230890916803,1909.2469428272648,-5349.611007640626,5350.862889430817,0,0,0.0001645819618169,0,2.337899816277202,2951.3864495254734,775.6063330448436,349.9691073738168,213.3595980590718,2380.705898596504,0,0,0.0001645819618169,0,-0.8317026090549893,0.8679116497537503,1.2770145473063842e-05,0.0855107766812236,-0.15193007026251,0.1928536663818505,0,0,0.0001645819618169,0,4.999847315391989,0.8005293820260663,-0.3972455815803151,0.9832221841254046,0.0121848124943402,0.062713148819076,-0.0865034204369188,0.1986299628768461,0,0,0.0001645819618169,0,-1.2334056409752236,1.279811796420341,-0.0058567504609757,0.1853881751256824,-0.4161961246356969,0.9138724922961248,0,0,0.0001645819618169,0,-2.7996568495255607,2.932777783807926,-0.0082909904370351,0.7603508762833779,-1.5313527974490828,2.1253136557088355,0,0,0.0003291639236339,0,24.810088036197293,28.11455312702968,25.49409988775037,0.4810183866161647,24.888165365636876,26.69539165257594,0,0,0.0032916392363396,0,74.67527896114066,137.01415056312334,97.87837481426703,11.626800841701314,79.64160671242772,131.05134545016278,0,0,0.0016458196181698,0,3.4456350182367,3.455911220348769,3.4504832647147627,0.0011567731955793,3.4486143194614844,3.453015609705427,0,0,0.0001645819618169,0,690,71.62447975502869,5.321166371999685,141.01588714879048,0.1806288517353947,827.5,True,72.2144579310136,729,-1.581,0.036196861006725,1.2349809252095298,large_sync_lag;weak_radar_ecg_coupling,2,2.65,Resting,,True
datasets_subject_01_to_10_scidata/GDN0002/GDN0002_1_Resting.mat,GDN0002,Resting,2018-02-06_15-41-19,v5,40.96,2000.0,2000.0,1000.0,100.0,200.0,1244700,1244700,622.35,True,,622.35,622.35,622.36,622.36,79661,77,154,1170.9836835015772,202.10133038204367,2817.7133358650617,2496.24513656588,-1.453284314729408,1.1287807012982027,0.1949959205676033,-4000.0,3999.999523162842,-316.5755075495473,1195.0504008453636,-1571.7254638671875,3551.428308486939,0,0,0.0379207841246886,456,-4000.0,3728.428363800049,-1258.5219161684968,929.8765837052964,-2767.5500774383545,1867.5561094284064,0,0,0.0053024825259098,65,-1.515962933232616,20.636102001205817,3.6078044110941367,3.1852205427415248,-1.459039484586882,10.003069381590764,0,0,0.0001606812886639,0,-1.506913000637933,20.512909456036077,3.586266690072436,3.166205545356632,-1.4503293712331629,9.94335347320091,0,0,0.0001606812886639,0,-113.64593572482,81.8051032162457,0.0109959576227994,2.436928398500714,-4.632043681040575,4.850369305285792,0,0,0.0001606812886639,0,-17136.176456192858,37834.41164123418,-0.0061251247254376,855.0178963004088,-2136.0762989300306,2140.6413473453035,0,0,0.0001606812886639,0,22.9610777200296,5398.649471927775,1293.292411604295,787.5345450015794,307.27391146614843,4375.082198423843,0,0,0.0001606812886639,0,-2.8409236575033776,2.290339011331405,-7.918041432554587e-05,0.1061097450960317,-0.1785995779215118,0.2346387703040252,0,0,0.0001606812886639,0,22.019822456674007,3.525610634008519,-0.3276662162874191,0.4535962826917074,-0.0008527056102475,0.0785209923894956,-0.1783646042595553,0.2856811112919768,0,0,0.0001606812886639,0,-3.245762886633287,2.0850994030899472,-0.0074749124281357,0.3958707178259333,-1.905352918609448,0.9388831606586836,0,0,0.0001606812886639,0,-4.716402803697218,10.754885060267377,-0.008393824324572,0.6120975497396461,-1.0382939379160083,1.6389613401291117,0,0,0.0003213615445921,0,24.517868383239684,27.695497781011813,24.98477961561014,0.266683636161329,24.612154779457576,26.08481893366412,0,0,0.0032135741371553,0,70.12068553302623,125.21463440350146,87.60835277146019,7.426380814930559,75.69544640982356,107.10874877943152,0,0,0.0016067870685776,0,3.445904654788368,3.4565295786536865,3.450734782239328,0.001181576738504,3.44875111860525,3.45336182690307,0,0,0.0001606812886639,0,721,70.28357880267926,7.334293610448928,38.66242403146592,0.0810637752581146,861.0,True,70.28360770062619,721,0.4495,0.0189236830251148,2.107308704967319,,0,2.97,Resting,,True
datasets_subject_01_to_10_scidata/GDN0003/GDN0003_1_Resting.mat,GDN0003,Resting,2018-02-07_17-20-06,v5,39.57,2000.0,2000.0,1000.0,100.0,200.0,1202700,1202700,601.35,True,,601.35,601.35,601.36,601.36,76973,75,149,417.317858766032,-111.91162597955643,3074.9949312813646,2898.459898344532,0.2978072043839903,1.0609064948725568,0.0471346738807418,-2769.3538665771484,3565.7849311828613,72.49012730569031,1909.5989987472472,-2600.784320831299,3479.5622968673706,0,0,0.0001662925085224,2,-3199.6054649353027,3039.865016937256,743.7316275086994,2075.428316325882,-3064.2843437194824,2984.3158769607544,0,0,0.0001662925085224,2,-6.567199293034218,4.678134937967256,-2.6073235999842552,2.393834865399901,-5.63844922039196,3.685173398461191,0,0,0.0001662925085224,0,-6.527994699283976,4.650207602193183,-2.5917585077810648,2.3795442493830072,-5.604789040275102,3.663173803270116,0,0,0.0001662925085224,0,-8.365918567017843,9.798886509654976,-0.0054588286098742,1.5245050731928451,-3.5106762805912526,3.8529079568816154,0,0,0.0001662925085224,0,-4299.516940448113,4651.903032081784,-0.004927066230823,678.385017916395,-1672.3792088233852,1672.4623883720192,0,0,0.0001662925085224,0,1828.074029384759,3998.779393370335,2739.3560296530595,670.74553671807,1904.0117321155096,3883.3704504398497,0,0,0.0001662925085224,0,-0.2684562301831713,0.2101589784743514,1.0645322811310811e-05,0.0414095317148218,-0.1014105743774564,0.0910460206405451,0,0,0.0001662925085224,0,11.17820230147716,1.7897505295843823,-0.2619755786992782,0.5561520992919322,0.0052460683795016,0.0886157191391595,-0.1699752943156105,0.4371742206902513,41,0,0.0001662981776214,0,-14.769988195341885,20.18093955512643,-0.0095528808641018,0.2610147209092167,-0.2425528398928443,1.417258774734395,0,0,0.0001662925085224,0,-6.798811043670924,7.714163187695217,-0.0097294318803934,0.5433219608408137,-0.9303774526247536,1.681507350914961,51,0,0.0003326121193877,0,14.762777792479197,24.60471839839627,22.939860561024176,0.2979230242515149,22.5362888403603,23.735753882955244,0,0,0.0033257948649727,0,85.33548658607926,145.03056030886515,108.26400683737614,12.666443347189189,89.35899774039957,140.59961873721167,41,0,0.0016634644975089,0,3.425318801234576,3.4627912297657497,3.450706228794085,0.0011806359443298,3.4487592273457754,3.4533447434681928,45,0,0.0001662987307249,0,597,60.6875526690818,8.538127767878922,99.40873944976668,0.1994680298229233,1024.75,True,60.68696812473925,597,0.155,0.01843286719719,2.154293000911468,,0,2.93,Resting,,True
datasets_subject_01_to_10_scidata/GDN0004/GDN0004_1_Resting.mat,GDN0004,Resting,2018-02-09_16-08-10,v5,39.73,2000.0,2000.0,1000.0,100.0,200.0,1206150,1206150,603.08,True,,603.08,603.08,603.08,603.08,77194,75,149,347.7808510563683,12.928851062604965,1903.733004999616,1706.0529389419712,0.4444632640354222,1.115869831202447,0.0509588274929241,-1780.5805206298828,2566.3294792175293,164.46547066014446,1361.6374257737575,-1587.9719400405884,2248.504557609558,0,0,0.0001658168552833,2,-1910.348415374756,2082.444667816162,-625.1001745890618,997.3087700821964,-1793.158073425293,1731.6401624679563,0,0,0.0001658168552833,2,-4.796643299857338,9.135229556358343,-1.7637543587321338,1.6183212009291563,-4.148720413128784,3.2504118760682617,0,0,0.0001658168552833,0,-4.768008497783463,9.08069444213513,-1.7532251711707558,1.6086602141966342,-4.123953554210313,3.2310077021676187,0,0,0.0001658168552833,0,-14.381722014356228,17.59548517282508,0.0011144359741823,2.6475006256620204,-6.2736278024304015,6.370974597198003,0,0,0.0001658168552833,0,-9249.046233386964,7903.4848283885185,0.0107102784553677,1226.2792008521535,-3015.4132736703577,3018.395935399187,0,0,0.0001658168552833,0,436.6075947815912,2831.506744537615,1633.055395303899,426.3934075703711,990.8118564719958,2580.989388350185,0,0,0.0001658168552833,0,-0.3800840881308293,0.7150716261671298,2.1396222796672773e-05,0.1069540207584982,-0.1947700335117122,0.207876184029103,0,0,0.0001658168552833,0,13.848702939918592,2.217326431594528,-0.3132211384491234,0.2390854278384376,0.007564925411739,0.0496802806966978,-0.1270239099534556,0.1328721236750175,0,0,0.0001658168552833,0,-2.2691838492767302,3.871897563305808,0.0820697964544389,0.4199486570767392,-1.1643730344794432,1.5472542386676504,0,0,0.0001658168552833,0,-2.503181681925787,3.719413413767185,-0.0120471362215794,0.970780477647524,-1.6019875240179235,2.778446991160884,0,0,0.0003316326107611,0,41.305049853246736,44.24125020038024,42.0253085268256,0.3759979731923219,41.552766155595634,43.263385334093165,0,0,0.0033163096106652,0,93.43629205109838,139.91364252798684,111.77622682212656,11.28343568952112,95.61307190341594,136.3087471827096,0,0,0.0016581548053326,0,3.4447128325079186,3.4563643553808108,3.449956612442746,0.0012933098341918,3.447646011234193,3.452915025455753,0,0,0.0001658168552833,0,701,69.90323195225568,3.083560873218146,42.6885533769118,0.1203002282470905,862.0,True,69.97278120748283,702,-0.3565,0.0260904984229566,1.8879294786364875,,0,2.88,Resting,,True
datasets_subject_01_to_10_scidata/GDN0005/GDN0005_1_Resting.mat,GDN0005,Resting,2018-02-16_09-54-55,v5,40.41,2000.0,2000.0,1000.0,100.0,200.0,1220200,1220200,610.1,True,,610.1,610.1,610.12,610.1,78093,76,151,-269.50748173270176,336.8319781527839,1629.8935149494412,1230.8423680870824,0.3386603164886899,1.3242097909601094,0.3016292623173758,-2187.520980834961,2906.508445739746,420.6766496625343,939.2166067638342,-1906.9638442993164,1879.329814910889,0,0,0.0001639075561383,2,-1256.6184997558594,2646.8305587768555,259.01226879748884,718.4938777549542,-1118.9732885360718,1872.560510635376,0,0,0.0001639075561383,2,-1.1937178684754848,13.890389433212809,7.23135451197797,2.273319918780609,2.5643248819775346,12.45646148718173,0,0,0.0001639075561383,0,-1.1865916610927387,13.80746716293248,7.188185071969231,2.259748747889745,2.549016481736324,12.382099420434573,0,0,0.0001639075561383,0,-746.1828928656805,123.11823023887132,0.0157262258136649,4.550580481694926,-10.802784063513636,10.130856557677388,0,0,0.0001639075561383,0,-232618.1123018458,218673.0212806554,0.0172266456037389,2160.3791464271453,-5358.651338404686,5378.91997492516,0,0,0.0001639075561383,0,22.7957558259592,2621.4854608218207,1057.3917858661732,529.4184526204837,241.8356557065321,2389.659261801007,0,0,0.0001639075561383,0,-1.4783441841778606,1.455437752955511,5.156827083704141e-06,0.1266562301577871,-0.3502165960028262,0.3509996194081013,0,0,0.0001639075561383,0,14.994058824025217,2.400710239192243,-0.250270034392164,0.3069522175642005,0.0077498955983514,0.0531501068335621,-0.1259259451980875,0.1675528847437272,0,0,0.0001639075561383,2,-0.3005303662212252,1.2733886188313557,-0.0099014111991023,0.171273988440901,-0.1963973741322608,0.8820400007463287,0,0,0.0001639075561383,2,-4.070611242257376,3.133552749573146,-0.0109678241500535,0.7209354944889892,-1.3329379078873216,2.0907004383039425,0,0,0.0003278151122766,0,41.96827374451573,44.03393262470576,42.65747743691964,0.3256609945690571,42.13285056816965,43.52807568837322,0,0,0.0032780436635415,2,89.94868196771337,158.32975513792448,111.05373940716044,13.443733715065289,94.04373977163976,151.64380022092095,0,0,0.0016390755613833,2,3.4448879410815296,3.456746437868495,3.4503545881489144,0.0014003491352231,3.4477603059206463,3.453552209086552,0,0,0.0001639075561383,2,644,63.57263207498143,4.3364219448586345,43.983601978358415,0.1102279218389787,954.5,True,63.56713138583008,644,-1.7825,0.0306296657571102,1.351771907470546,large_sync_lag,1,2.92,Resting,,True
datasets_subject_01_to_10_scidata/GDN0007/GDN0007_1_Resting.mat,GDN0007,Resting,2018-02-19_09-26-56,v5,42.06,2000.0,2000.0,1000.0,100.0,200.0,1269850,1269850,634.92,True,,634.92,634.92,634.92,634.92,81270,79,157,1505.574017848478,849.3297868978927,1486.437223129881,1196.2393546172043,-0.1717906427484177,1.242591808564549,0.2036800540361574,-425.9185791015625,3479.6175956726074,2026.2060913677435,966.3907026796848,-166.48852825164795,3097.0742750167847,0,0,0.0001574989171949,2,-881.4797401428223,2692.6937103271484,1302.0707244079226,579.0756902990113,-489.1848659515381,2415.953402519226,0,0,0.0001574989171949,2,-1.1057907713859725,6.577255811516375,1.4460820270489882,1.2893068011866882,-0.3213806939176832,5.515235877170508,0,0,0.0001574989171949,0,-1.0991894675377798,6.537991182779521,1.4374492665874448,1.2816099509611196,-0.3194621287909057,5.482311250955711,0,0,0.0001574989171949,0,-279.0698074417576,255.23812624684456,-0.0017061339604739,4.825943168253191,-11.330082232255734,11.120382709247952,0,0,0.0001574989171949,0,-194826.23350634312,208243.53024797252,0.034979808840023,3017.949089448702,-7018.566586824483,7034.82993423786,0,0,0.0001574989171949,0,0.3146287830609343,2515.189706494747,1025.4068493665516,466.6695175315946,212.64817168202777,2302.6597921027155,0,0,0.0001574989171949,0,-1.1404325342493102,1.093432650323422,3.157927439313508e-05,0.0931515601799525,-0.2032587932008627,0.2002578439750703,0,0,0.0001574989171949,0,7.637180650317301,1.222794841674204,-0.1898779020917147,0.3181459433686746,0.0068835458734044,0.0693009189173914,-0.0905121067663482,0.2443662821290184,0,0,0.0001574989171949,2,-0.5809040477827128,1.4020113499231592,-0.0136351895080958,0.2239998896398017,-0.3035614230332106,0.8891388311635514,0,0,0.0001574989171949,2,-1.8938759421471532,2.6992604543729506,-0.0126306254084553,0.727190533930712,-1.300423019406864,1.9349604290869915,0,0,0.0003149978343898,0,26.7761972162878,28.27398124180016,27.189441637121316,0.2728187893822812,26.846237734340868,27.98660050492667,0,0,0.0031500031500031,2,58.58410207353146,107.36485136107942,74.82430003334397,8.883443256847926,61.71459507619904,100.93532708422713,0,0,0.0015750015750015,0,3.445572158215131,3.4568512928019186,3.450829383089302,0.0013358195086625,3.4483848014894445,3.453874496757205,0,0,0.0001574989171949,2,1294,89.08313464687605,15.554593160974354,142.91152218549283,0.225853625116057,660.5,True,62.27949853284273,647,0.2635,0.0263521838216546,0.9410975050938918,weak_radar_ecg_coupling,1,2.96,Resting,,True
datasets_subject_01_to_10_scidata/GDN0008/GDN0008_1_Resting.mat,GDN0008,Resting,2018-02-19_11-50-49,v5,40.98,2000.0,2000.0,1000.0,100.0,200.0,1237150,1237150,618.58,True,,618.58,618.58,618.56,618.58,79178,77,153,1115.7284664966276,1235.9316741079683,1479.213377886693,1258.9664794517212,-1.102229171776378,1.1749426231990618,0.1455200291521263,-702.7382850646973,3032.029151916504,1321.865516205938,619.3004751175304,184.8375654220581,2488.622431755066,0,0,0.0001616618841692,2,-542.7556037902832,2639.459609985352,29.706188839485858,311.99457391929604,-369.76224422454834,1126.880512237549,0,0,0.0001616618841692,2,-1.5573434087926146,10.862202827964552,-0.2828404240310955,0.8500320029493219,-1.3278394760538377,1.290227937921033,0,0,0.0001616618841692,0,-1.5480464447525415,10.797358100387184,-0.2811519350077689,0.8449575171809849,-1.319912595065249,1.2825255887316214,0,0,0.0001616618841692,0,-17.877739566791547,17.852407262201268,-0.0025924810535939,2.495069570974892,-6.008475875878013,6.012409157029149,0,0,0.0001616618841692,0,-16933.98142125397,8942.154784009243,-0.0468980356045118,1531.5138520216422,-3724.500696023921,3721.532087699392,0,0,0.0001616618841692,0,0.1649666715802145,2626.6065239536324,601.8750961871287,344.41263220970404,74.84617496604348,1669.204737973996,0,0,0.0001616618841692,0,-0.3189722172252561,0.3015557544775079,8.405596980843797e-06,0.040507054399903,-0.0905029018711904,0.0762712543828891,0,0,0.0001616618841692,0,12.345404545139726,1.9766321745382496,-0.251920722075968,0.4603413559688029,0.0092204259094064,0.0676241180607971,-0.1327845651568276,0.2978805337401265,0,0,0.0001616618841692,0,-0.7224979420360609,2.8183751809394897,-0.0098734362280499,0.2559314199849596,-0.4377527065556323,1.466875963402236,0,0,0.0001616618841692,0,-1.4873877387882786,2.91709647273492,-0.0111175805019634,0.529163771022546,-0.8066469072879788,1.686262665593251,0,0,0.0003233227229593,0,21.50678088642355,24.31063961525796,21.857698642750137,0.2314945164126736,21.5870471091883,22.56255216444181,0,0,0.0032333160889808,0,54.84315825028546,102.08528440769771,72.05673656469047,8.958862950032966,58.513584629009536,95.97033379438577,0,0,0.0016166057745158,0,3.4442957854357883,3.456084573815703,3.4498395767461743,0.001386305345442,3.4472557129588024,3.4530190812824624,0,0,0.0001616618841692,0,589,57.29175129667379,3.564886291102456,62.42558772976955,0.041789630836706,1055.25,True,57.29201892454677,589,-0.2635,0.0184320817995049,1.248270183618925,weak_radar_ecg_coupling,1,3.01,Resting,,True
datasets_subject_01_to_10_scidata/GDN0009/GDN0009_1_Resting.mat,GDN0009,Resting,2018-02-19_14-55-07,v5,42.94,2000.0,2000.0,1000.0,100.0,200.0,1298800,1298800,649.4,True,,649.4,649.4,649.4,649.4,83123,81,161,592.9334283511927,834.4500850553343,2691.470985414577,2593.973298480122,1.2102960817647954,1.037586233825761,0.0485580314419237,-2531.465530395508,3445.657730102539,-83.34956580578529,1631.1131016483666,-1774.792251586914,3299.757962226868,0,0,0.0001539882968894,2,-2553.534984588623,3703.032970428467,-757.7773536852334,1185.966195764577,-1945.423674583435,3418.1993389129643,0,0,0.0001539882968894,2,2.0331881461845955,11.035553089758132,3.484098613261509,1.252500649865623,2.347499045954345,8.425611596666258,0,0,0.0001539882968894,0,2.021050503982459,10.96967350298328,3.463299385976967,1.2450235234744715,2.333485043589085,8.375312730284207,0,0,0.0001539882968894,0,-18.90771025550498,16.230141826951012,0.0028002411172968,1.91582086079559,-5.159964846820274,4.652495471729097,0,0,0.0001539882968894,0,-5271.765814152546,6551.395945875076,0.0170451934603613,759.3831552992392,-1832.953203543081,1836.3411163397511,0,0,0.0001539882968894,0,133.21058204436457,4713.256411355893,1772.2344894214991,962.408791714921,876.6188158709134,4495.924568959503,0,0,0.0001539882968894,0,-0.6686516970036257,1.082856817138622,8.491843045545377e-07,0.0752692754789173,-0.2315101931290426,0.2311541470193442,0,0,0.0001539882968894,0,8.948622999000822,1.4327708802869197,-0.2581811894924849,0.697405368657616,0.0064978742366685,0.097441917277281,-0.1594149249696073,0.4813302622385913,0,0,0.0001539882968894,0,-1.0038473295623571,1.794759221978349,-0.0160856315694013,0.232727599336564,-0.4983416717996744,1.0649707857549673,0,0,0.0001539882968894,0,-1.6298928549527718,2.954690547355929,-0.0120286581277377,0.40953681818779,-0.8965803460800453,1.162146783473047,0,0,0.0003079765937788,0,16.623562726722664,18.78704197432336,17.031285327588495,0.3736919373920777,16.661767551723898,18.419468463196903,0,0,0.0030797659377887,0,54.34417570053762,108.8832975556195,74.65423117684173,10.19532217438026,58.320117568861306,102.38700520012368,0,0,0.0015398829688943,0,3.444806412375629,3.456369458421413,3.4501344336535738,0.0013952868805513,3.4475839267079653,3.453306657579778,0,0,0.0001539882968894,0,641,61.43135405323656,12.318593722457642,287.78065909035456,0.1188790567285623,992.0,True,61.42940495626024,641,1.271,0.025999873530155,3.664997231215235,large_sync_lag,1,3.1,Resting,,True
datasets_subject_01_to_10_scidata/GDN0010/GDN0010_1_Resting.mat,GDN0010,Resting,2018-02-20_09-44-26,v5,42.22,2000.0,2000.0,1000.0,100.0,200.0,1278250,1278250,639.12,True,,639.12,639.12,639.12,639.12,81808,79,158,791.6282357960055,1244.4652983514848,1973.708209328427,1719.9093878178464,-0.0545604498488447,1.1475652283243774,0.1069715456533273,-1376.936912536621,1645.5731391906738,34.75244728198798,816.9114096788006,-1261.8928050994873,1322.8357076644895,0,0,0.0001564639155094,2,-604.0501594543457,3163.6037826538086,2541.613086975742,579.0643301170493,418.9662837982177,3093.0149698257446,0,0,0.0001564639155094,2,1.196819960963918,5.299248952581166,2.1204632289576804,0.5875683253487048,1.3449476926854191,3.698688275121447,0,0,0.0001564639155094,0,1.1896752348381952,5.267613716143663,2.107804575588994,0.584060684348646,1.336918679775306,3.6766079993806566,0,0,0.0001564639155094,0,-11.846761282974285,12.404037109196452,0.0018223069628047,1.8814780441106416,-4.70654427787327,4.709844992713902,0,0,0.0001564639155094,0,-7935.167735929979,7605.368016037042,-0.0073607510800674,1053.398042910782,-2723.359502553229,2707.7241837689417,0,0,0.0001564639155094,0,14.282990467862088,3153.104801333711,901.4402505110254,435.9647054933831,155.63204844131772,2336.534889909981,0,0,0.0001564639155094,0,-0.1849065409902812,0.227571801363697,2.22272894600496e-06,0.0418150995869613,-0.1143871651808016,0.094187618521182,0,0,0.0001564639155094,0,4.077938481305468,0.6529218526993847,-0.3707592594589531,0.329093537492768,0.0090189920531548,0.0720897735202128,-0.1348834233289192,0.2395651218441689,0,0,0.0001564639155094,0,-0.394971688497872,1.8965363517442104,-0.0049434064140399,0.2631396380536671,-0.236107124101452,1.2473194225923818,0,0,0.0001564639155094,0,-1.4850261591034957,2.6892997594259174,-0.0151527217296965,0.552035473737302,-0.8692256454637058,1.8117598936720325,0,0,0.0003129278310189,0,24.10414163083813,26.51380374316036,24.469560554385552,0.213759568666179,24.179663381620298,25.37491968408144,0,0,0.003129302791338,2,71.38857350595913,114.22668221379762,85.8328264307844,8.186746666210759,74.12574746323058,108.64305373431657,0,0,0.001564651395669,0,3.4455274927470105,3.457775227496302,3.450875477278009,0.001454228411502,3.448328896187275,3.454563716308541,0,0,0.0001564639155094,0,492,46.34128265720251,3.133919930273973,85.05181194005048,0.2702133934781095,1308.5,True,46.34479465740233,492,0.124,0.0260494055180587,1.825077311498427,,0,2.99,Resting,,True
datasets_subject_11_to_20_scidata/GDN0011/GDN0011_1_Resting.mat,GDN0011,Resting,2018-02-20_11-49-35,v5,43.33,2000.0,2000.0,1000.0,100.0,200.0,1297850,1297850,648.92,True,,648.92,648.92,648.92,648.92,83062,81,161,739.8209445563002,708.0066359450961,2346.1377865956856,2182.8260761240986,-1.067769213584386,1.074816638969958,0.1232922017971107,-2153.141021728516,3475.9397506713867,1180.7940045355392,924.0276568203556,-1058.9427947998047,2254.3344497680664,0,0,0.0001541010132141,2,-1875.46968460083,3756.727695465088,2683.3840330564567,375.4069355421706,1616.698017120361,3237.3884439468384,0,0,0.0001541010132141,2,1.3047598723362444,8.960769721680755,2.4246401735098853,0.5508167329463233,1.82350399651366,3.941243215065609,0,0,0.0001541010132141,0,1.296970771007948,8.907276090537174,2.4101656572432937,0.547528490077114,1.8126181180447227,3.9177149449122366,0,0,0.0001541010132141,0,-11.76806488743614,14.511175292125811,-0.0005834191811599,1.9427546552767097,-4.756116713767023,4.707617138655857,0,0,0.0001541010132141,0,-5740.158921681606,5796.738089075428,0.0039118337628195,921.4378160948288,-2217.535746746442,2213.226911581395,0,0,0.0001541010132141,0,1.7133800844114575,4758.842446664798,860.9329593132563,503.5393901078631,148.16787936010755,2774.404513543891,0,0,0.0001541010132141,0,-0.3414370423678079,0.3254082927213475,-8.480067718869927e-06,0.0759511833408785,-0.1799041550320631,0.1598512293217912,0,0,0.0001541010132141,0,7.610305319529226,1.2184918118834158,-0.5320508049484611,0.5481225696930015,0.008983249157116,0.094718313948169,-0.1169746004736029,0.2953103707086396,0,0,0.0001541010132141,2,-0.6681620016635901,2.4253161883161862,0.0062981071690621,0.3022260814865277,-0.3402213507312639,1.556493149805179,0,0,0.0001541010132141,2,-1.986828809699673,2.5656958644916825,-0.0122990422459369,0.6685088899825066,-1.184929287813942,1.932724625727108,0,0,0.0003082020264283,0,28.32575906602653,30.292062811354025,28.750843986329656,0.1990287009658376,28.42175397009184,29.228722356573478,0,0,0.0030820440115884,0,67.46702650085358,125.86271383343887,90.40404095223384,8.730819274880181,75.23612598400096,114.3367292961275,0,0,0.0015410220057942,0,3.443922631196865,3.4565900092487607,3.4494719278085024,0.001599023361292,3.446665853163948,3.453386437991262,0,0,0.0001541010132141,2,660,62.63226773041816,11.50662863015613,177.90320017419262,0.0786686278604059,1001.0,True,62.60258696457871,660,0.124,0.0239826785379776,2.166536341887213,,0,3.18,Resting,,True
datasets_subject_11_to_20_scidata/GDN0012/GDN0012_1_Resting.mat,GDN0012,Resting,2018-02-20_14-43-51,v5,43.01,2000.0,2000.0,1000.0,100.0,200.0,1296900,1296900,648.45,True,,648.45,648.45,648.44,648.46,83002,81,161,502.9751496421867,781.4748986369264,2124.729473465946,1810.6261950780831,0.9966464306621208,1.1734777058023933,0.0928309257019875,-2099.5802879333496,2619.2612648010254,-839.2446454123383,832.6972664345137,-1602.7104568481443,2251.5760040283203,0,0,0.0001542138946719,2,-1604.032039642334,3111.6251945495605,375.0515792864181,1039.740599747653,-1334.4841241836548,1946.8522357940676,0,0,0.0001542138946719,2,1.342833803483262,10.698882996295252,2.5659327726302763,1.1070012036176204,1.4903168332013197,7.43780101858455,0,0,0.0001542138946719,0,1.3348174099811654,10.635013248669956,2.550614773670185,1.1003926737813332,1.481420001630093,7.39339914278979,0,0,0.0001542138946719,0,-12.589250624044553,12.0066062347355,0.0005897778757748,2.3247161201501534,-5.397549347959463,5.528780682890589,0,0,0.0001542138946719,0,-8468.005805296387,14200.972129709427,0.0258826066841848,1322.4179969138977,-3223.0730203803414,3219.493710297996,0,0,0.0001542138946719,0,258.2318992803462,3740.0886361780745,1190.0447041073132,598.5305794337156,367.3642202969343,3193.258574894667,0,0,0.0001542138946719,0,-0.2910693783545934,0.3402127714747087,-4.381115414762751e-06,0.0680526632090535,-0.1667286023972909,0.1426312925746952,0,0,0.0001542138946719,0,9.30019583868879,1.4890614768469654,-0.2790439085817334,0.5319548353347072,0.0109286445063603,0.1175988004519243,-0.187376615675906,0.3605318856305567,0,0,0.0001542138946719,2,-0.6810074012093799,2.6790275022855625,-0.0104797372715957,0.4150004487194338,-0.4345587334814994,2.2081646686159617,0,0,0.0001542138946719,2,-1.2446921563107962,2.217090738356829,-0.0126601643015564,0.5211439231070504,-0.8457272356161898,1.5346262945011195,0,0,0.0003084268380697,2,21.38595279026489,23.00777381510865,21.69986310502732,0.2124911539111277,21.423239178141003,22.38272286320135,0,0,0.0030843254580223,0,16.262570386218123,79.12470125033556,38.95483084224431,11.084578735090938,22.81220929418201,70.53811012113097,0,0,0.0015421151651605,2,3.443274875625047,3.457318587162724,3.449409660462976,0.0018112621311127,3.446275448112965,3.453846729904088,0,0,0.0001542138946719,2,676,62.68828667299882,3.504777727903558,48.03551789278936,0.0690878780845694,960.0,True,62.68779614370366,676,-0.4495,0.0276089204394804,1.3560245306149288,,0,3.19,Resting,,True
datasets_subject_11_to_20_scidata/GDN0013/GDN0013_1_Resting.mat,GDN0013,Resting,2018-02-21_11-48-59,v5,48.07,2000.0,2000.0,1000.0,100.0,200.0,1451250,1451250,725.62,True,,725.62,725.62,725.65,725.62,92880,90,180,599.1429136932355,1135.7607984970728,1369.1511789349618,961.4033436330816,-0.5923834458037955,1.424117346795391,0.168476136442897,-1214.94722366333,2630.797863006592,637.0842198472923,528.1258530593691,79.07674789428711,1870.7516241073608,0,0,0.0001378122308354,2,-1262.6171112060547,2828.9170265197754,371.3528922052244,482.2796497250472,-137.8097915649414,2091.227822303772,0,0,0.0001378122308354,2,-1.6242760614809992,10.259098123414446,-0.812119941737188,1.0614329111950809,-1.506985179582358,2.759892733620072,0,0,0.0001378122308354,0,-1.6145795256691275,10.197853785268816,-0.8072717818182336,1.0550964130594631,-1.49798884200877,2.743416840535696,0,0,0.0001378122308354,0,-33.06068827328515,26.429796793491136,-0.0008253982676968,3.059482491851297,-8.923777421631693,8.386106233485354,0,0,0.0001378122308354,0,-18413.52555634974,16090.34923112498,0.0094016275669001,1633.8654302819364,-4395.744788702273,4389.337505642662,0,0,0.0001378122308354,0,94.758042821308,2585.027240910375,585.5796344391891,410.617911127445,196.76342699474188,1800.8577882411723,0,0,0.0001378122308354,0,-0.4650289246496417,0.6758632321619019,-1.6592471842121272e-05,0.0729555721696538,-0.2060510539760077,0.2509146190788034,0,0,0.0001378122308354,0,11.812433310937942,1.891297742136733,-0.1900324336066511,0.184014481012051,0.0049203779109938,0.0446010839743771,-0.1056710361030002,0.1208180712601177,0,0,0.0001378122308354,2,-0.3430806731721283,0.8605799133060353,-0.0069140413490586,0.1197426142029973,-0.1762027031923282,0.6121824429692432,0,0,0.0001378122308354,2,-2.5820151943614142,2.2518443412635385,-0.0128571097587154,0.5839109921375472,-1.266793594061154,1.4181232137033002,0,0,0.0002756244616709,2,24.439294154651638,27.500200829981523,24.88191370017425,0.2768611404968095,24.502179029280708,25.71883011050428,0,0,0.0027561496589264,2,63.96977223595345,107.23489216411951,80.75770512329044,8.716510455576449,66.88645144651343,101.43256563413654,0,0,0.0013781223083548,2,3.4445880077951427,3.455734219510915,3.4495318956445096,0.001298378072638,3.447270206150254,3.452575727443842,0,0,0.0001378122308354,2,802,66.36368087758122,2.5136577814828,33.87272593843017,0.0489233756577954,908.5,True,66.3635756327101,802,0.465,0.0212700764953476,1.5291083128979814,,0,3.42,Resting,,True
datasets_subject_11_to_20_scidata/GDN0014/GDN0014_1_Resting.mat,GDN0014,Resting,2018-02-21_14-53-35,v5,39.98,2000.0,2000.0,1000.0,100.0,200.0,1207000,1207000,603.5,True,,603.5,603.5,603.52,603.5,77248,75,149,636.5273791965185,1139.0856110948962,1589.5675585644592,1419.594139044376,0.6469058469373188,1.1197338132393977,0.1123677620074834,-1395.5764770507812,2382.370948791504,1892.9342650379535,395.73799261987466,175.23718833923337,2287.621021270752,0,0,0.00016570008285,2,-947.0868110656738,2605.608463287353,780.0092882600419,578.0206156269404,-258.7766695022583,2083.6439418792725,0,0,0.00016570008285,2,-2.862745020154567,8.163659879942273,-0.8779463211819306,0.9779368561130308,-2.2117840254940853,5.216687316234447,0,0,0.00016570008285,0,-2.8456551237592,8.114924802045708,-0.872705193675268,0.9720988092613132,-2.1985802090247506,5.185544952826663,0,0,0.00016570008285,0,-17.70733998524369,16.871626857968295,0.0011530545311032,2.83098493154476,-6.941012960385918,6.823152230351526,0,0,0.00016570008285,0,-12263.546467262902,11308.560233672111,-0.0542476443793049,1776.892608007895,-4347.090104963094,4341.539788897586,0,0,0.00016570008285,0,1.9152180417910305,3288.693439746044,582.527838678648,389.0728827057196,75.1405401496145,2070.022268520255,0,0,0.00016570008285,0,-0.2260459997398831,0.2054417271813529,-2.4815761066020083e-05,0.0387314088174584,-0.0852648237538628,0.0767726372073611,0,0,0.00016570008285,0,10.960579925804907,1.7549068443831084,-0.3828155436925431,0.7260521580663463,0.0065810554942927,0.1659104218921739,-0.238130008004211,0.4362334217371816,0,0,0.00016570008285,2,-0.6005445896253547,2.120406382255733,-0.0090915973527394,0.3258708314383067,-0.4011741775520671,1.4892276237740572,0,0,0.00016570008285,2,-2.4599427698447074,3.9518921768524335,-0.0158283166503487,0.9020081166730262,-1.740550269110194,2.3115542779974394,0,0,0.0003314001657,2,37.13960747338109,40.31871307865084,37.71714237322461,0.319366997650299,37.24476339322884,39.029814466491786,0,0,0.0033138918345705,2,37.946593435039546,100.95870480103756,65.9636322688106,10.856997286150577,46.64258126251399,95.43312604620198,0,0,0.0016570008285004,2,3.4442301404636595,3.4555630220769253,3.4492510825545013,0.001299353886978,3.447046878808556,3.452311335423404,0,0,0.00016570008285,2,799,79.46914184081461,2.407508491169085,14.965109987518282,0.0530240704424775,756.25,True,79.46942136545883,799,0.9145,0.0174687221650476,1.246864240681464,weak_radar_ecg_coupling,1,2.98,Resting,,True
datasets_subject_11_to_20_scidata/GDN0015/GDN0015_1_Resting.mat,GDN0015,Resting,2018-02-21_17-55-00,v5,42.89,2000.0,2000.0,1000.0,100.0,200.0,1296900,1296900,648.45,True,,648.45,648.45,648.44,648.46,83002,81,161,544.0327425485418,640.4198177916862,1282.415918434946,1134.4631493677853,0.4363468729935156,1.130416549140104,0.0832447297320132,-612.4567985534668,1943.4013366699216,1271.5789365959624,520.2463301307026,-233.43276977539065,1884.8152208328247,0,0,0.0001542138946719,2,-726.8061637878418,1904.7107696533203,480.02551633249647,795.1281027609292,-624.2804765701294,1811.072397232056,0,0,0.0001542138946719,2,-2.89544766699058,2.3426494551813275,-0.7090712711643061,0.9552682327830458,-2.587678221823612,1.1553734584168365,0,0,0.0001542138946719,0,-2.878162543691542,2.3286644037017683,-0.7048382869216246,0.9495655121379613,-2.572230407783531,1.1484761579016702,0,0,0.0001542138946719,0,-19.005634459971503,19.954122251421467,0.0025216498734494,3.0316293497817584,-7.368021728438237,7.485599670104992,0,0,0.0001542138946719,0,-13028.807411963751,11631.652230201737,0.0082273641567571,1859.1885410303548,-4606.704378193373,4605.059439813604,0,0,0.0001542138946719,0,173.01968691683285,2019.580252475547,890.3887415827382,331.8024000476283,343.31232141596826,1725.9287494587657,0,0,0.0001542138946719,0,-0.2184704388071802,0.209989608324059,-1.3431286842246431e-05,0.0419915472183911,-0.1010000270418418,0.0921433528636588,0,0,0.0001542138946719,0,5.20682694739331,0.8336690493890908,-0.3425075700297447,0.5430213950242976,0.0046350702469214,0.0918084872945545,-0.2183971853053435,0.3140085512087149,0,0,0.0001542138946719,0,-0.8689749770819701,1.166316715273697,-0.0023192292572198,0.2040319445471299,-0.41110349137621,0.6105277306885236,0,0,0.0001542138946719,0,-1.4146577758383754,1.934475221206044,-0.0169390944849702,0.5370028423077022,-0.9913912593564704,1.4772919198659582,0,0,0.0003084268380697,2,27.398062939171293,29.03661146137074,27.935663288879116,0.2740920617137371,27.493437703556832,28.56603941894688,0,0,0.0030843254580223,0,92.80067964096982,120.34666407175403,103.60402251437569,4.3739674953926775,94.66249487632577,115.32783507428589,0,0,0.0015421151651605,2,3.4451828357726515,3.4562771912827315,3.449958593545856,0.0012846668784996,3.447819886688419,3.452977732564253,0,0,0.0001542138946719,0,697,64.88962771571232,4.974384358183251,49.78979193865912,0.0970777215496349,922.25,True,64.8912560659332,697,1.3175,0.0253457386937318,1.1607761230124574,large_sync_lag;weak_radar_ecg_coupling,2,3.18,Resting,,True
datasets_subject_11_to_20_scidata/GDN0016/GDN0016_1_Resting.mat,GDN0016,Resting,2018-02-23_10-01-07,v5,40.45,2000.0,2000.0,1000.0,100.0,200.0,1221100,1221100,610.55,True,,610.55,610.55,610.56,610.56,78150,76,151,-590.1771069798326,-117.17759240790816,3180.8988192689635,3066.3323200898967,-0.4625407970989226,1.037362714546122,0.279422703585207,-3940.5202865600586,3833.963871002197,-190.4969699657497,1933.363364894598,-3840.853114128113,2923.9521074295044,0,0,0.0001637867496519,2,-4000.0,3117.0787811279297,-1856.1883851240252,1424.1844686050565,-4000.0,2416.839280128479,0,0,1.5725165834084025,1288,1.6114220413534328,13.667168055334145,5.5190725408325605,1.0954328384687717,3.7983054873648014,8.731070397495447,0,0,0.0001637867496519,2,1.601802240937378,13.58557836277007,5.486125010662288,1.0888933689785747,3.7756305209252425,8.678948015843098,0,0,0.0001637867496519,2,-30.261537260374094,98.15927156430348,0.0046528294250767,2.2350217765585536,-5.030877009313064,5.410550630264072,0,0,0.0001637867496519,0,-39699.45975903218,31615.688318827077,0.0039210242625703,745.9628533284795,-1803.0099784595548,1801.6829938513272,0,0,0.0001637867496519,0,1.5732470208139235,5003.7130490997815,2158.933665736517,1051.2852744530935,147.4292088913057,4511.892808968009,0,0,0.0001637867496519,2,-0.8367049774331968,1.0076132792923276,-5.273662100748134e-05,0.0691827059451959,-0.1982012476294878,0.1390874433838521,0,0,0.0001637867496519,0,11.983776121832692,1.918731570785444,-0.217074098337088,0.2115071463987408,0.0014766525395006,0.0446243660104989,-0.0951987182764788,0.1255605616701254,0,0,0.0001637867496519,0,-0.5559820910891002,1.7783665544484517,-0.0090140818675098,0.222099521478893,-0.2806199353296371,1.1169863798451478,0,0,0.0001637867496519,0,-2.106750106535153,2.805784248663127,-0.0150262816820889,0.6271391172603106,-1.083799131071066,1.8602991395180897,0,0,0.0003275724262634,0,25.051898023364814,27.640577044194277,25.524934169013655,0.2395494801747431,25.155717199900597,26.229400450423416,0,0,0.003275681341719,2,66.35787882971563,129.8723128422285,91.31969335821124,11.865097827877944,72.79184758013476,121.6931726968106,0,0,0.0016378406708595,2,3.445517790810406,3.4578506146708547,3.450800052907664,0.0013981939770261,3.448328441658132,3.45418758870429,0,0,0.0001637867496519,0,504,49.97284417858811,4.273453281509318,120.3778538155712,0.0571616224401133,1208.5,True,49.95351370991158,505,0.186,0.0302506942488528,3.3802644319628827,iq_clipping,1,3.12,Resting,,True
datasets_subject_11_to_20_scidata/GDN0017/GDN0017_1_Resting.mat,GDN0017,Resting,2018-02-23_12-08-51,v5,39.89,2000.0,2000.0,1000.0,100.0,200.0,1206500,1206500,603.25,True,,603.25,603.25,603.24,603.26,77216,75,149,1285.6492310220167,938.5064046750706,2664.150397145078,1743.1845565230497,0.7894926197208529,1.5283237722453118,0.6382139146266127,-1928.6212921142576,3214.109420776367,-170.05222704318663,528.2627359063648,-1667.833013534546,1669.616985321046,0,0,0.0001657687525901,2,-1974.6661186218264,3279.4337272644043,1260.891429740267,620.0909375578083,-1029.8438358306885,2540.668973922729,0,0,0.0001657687525901,2,1.188732573882651,7.630381958027195,2.0547477853333125,0.5752285329268194,1.5216655843666869,5.038490465522853,0,0,0.0001657687525901,0,1.1816361275046372,7.584830420533741,2.042481437292277,0.5717945575073644,1.5125816083219676,5.008411894277907,0,0,0.0001657687525901,0,-36.68394570621626,34.99552312834123,0.0005023261050007,3.0090916429157386,-8.232151994151115,8.334448035080971,0,0,0.0001657687525901,0,-22458.78573208585,19110.5440718552,0.0079827430073566,1955.167446891612,-5445.37181500006,5417.245532367492,0,0,0.0001657687525901,0,0.6344975464494389,3463.931776218326,638.1626048485365,506.2832989162593,59.278741733156224,2701.519565546612,0,0,0.0001657687525901,0,-0.3107720389662737,0.2791469329109499,-3.489186021370595e-06,0.0297307814257464,-0.0756680334017279,0.0718743963479321,0,0,0.0001657687525901,0,6.403194293029104,1.0252203411514675,-0.324320466635427,0.7127979641522647,0.001322831472582,0.1056223546790079,-0.1558698893926701,0.4649689355098189,0,0,0.0001657687525901,2,-0.5295411978804656,1.7802834120091229,-0.0128739658334452,0.2504620519234508,-0.315295543218318,1.1482640377118056,0,0,0.0001657687525901,2,-1.6352841179833706,2.415014523341201,-0.0148979026952681,0.5206892069231741,-0.8433943647578217,1.640726365057947,0,0,0.0003315364060127,2,36.41970796801937,39.21804855588774,37.000879574740864,0.3700715049480214,36.51152985513136,38.32359512489135,0,0,0.0033154300112724,0,78.73809248908992,129.5589742784968,96.90584827555509,11.827703928417474,81.10493542187976,125.54600861506718,0,0,0.0016576600470775,2,3.444884912007425,3.456774644604066,3.449898877681264,0.0013290254162349,3.4475844820485704,3.45301596195855,0,0,0.0001657687525901,2,589,58.73366730732534,2.7185384204519174,34.50662850181369,0.0997099873269683,1025.75,True,58.73348392530927,589,-1.9995,0.0184896431300481,1.2429325316567617,large_sync_lag;weak_radar_ecg_coupling,2,3.02,Resting,,True
datasets_subject_11_to_20_scidata/GDN0018/GDN0018_1_Resting.mat,GDN0018,Resting,2018-03-15_11-31-19,v5,42.39,2000.0,2000.0,1000.0,100.0,200.0,1271950,1271950,635.98,True,,635.98,635.98,635.96,635.98,81405,79,157,-1160.2920743611935,-302.71001005667074,2336.515245537124,1106.9886044955,-0.9408840917691036,2.1106949394496883,0.3452956400618081,-2814.7034645080566,1956.964492797852,-709.4736885391853,1018.3607861188844,-2706.8622159957886,1078.0652379989624,0,0,0.0001572388851763,2,-2599.752426147461,2567.190170288086,-541.9335252387029,830.8335618128609,-2393.245267868042,1631.3485193252566,0,0,0.0001572388851763,2,-3.879389140110392,8.255839355720083,0.0829622450930572,1.5335026932937117,-3.3821815095479817,1.6861410810192472,0,0,0.0001572388851763,0,-3.856230123846268,8.206553988615179,0.0824669805258724,1.524348052567451,-3.3619907027588454,1.6760752259816103,0,0,0.0001572388851763,0,-63.86302372710429,97.4934854664436,0.0048080712788173,2.8146689034060066,-7.208823849136997,7.352900289254591,0,0,0.0001572388851763,0,-47336.7506225165,49441.12668520841,0.0141783989622492,1643.6115076107253,-4358.862263377533,4350.408394077151,0,0,0.0001572388851763,0,0.4590160577805918,3124.429893174909,1123.7213706682785,681.61087083667,165.82408975831544,2684.841824600047,0,0,0.0001572388851763,0,-0.5772791865183013,0.5987524535766745,-3.2760000530139495e-05,0.0665617427640964,-0.1909705846399086,0.1744539720327178,0,0,0.0001572388851763,0,12.062784112461449,1.931381600661046,-0.3452170825988373,0.4583296394195947,0.0056355162502317,0.1091229535607202,-0.1795275197258942,0.2904240998003282,0,0,0.0001572388851763,0,-0.5729883021466725,1.520529636521863,-0.0115734978451032,0.2075647951547279,-0.3277054287067682,0.7791415026162831,0,0,0.0001572388851763,0,-2.0290157529532538,3.1272222497994644,-0.0141198051352452,0.8328631336729926,-1.4056748730470825,2.240591896583948,0,0,0.000314476781393,2,30.474247130860547,33.0345742216494,31.34289186342366,0.5110520667822328,30.552638722484133,32.47759521501842,0,0,0.0031448518774765,0,4.19320433614924,195.74165834165845,69.16728409635343,41.12952611450175,24.99129435886824,175.088035625501,0,0,0.0015723764898267,2,3.431755104593076,3.457505059337023,3.4428742636440086,0.0053986674624489,3.434834726660005,3.454095413474315,0,0,0.0001572388851763,0,687,65.0081502466988,4.43036178543402,60.345708481744936,0.0297181726625831,930.5,True,65.00887180748987,686,-1.1005,0.0179211846734495,0.9195175869004836,strong_iq_imbalance;large_sync_lag;weak_radar_ecg_coupling,3,3.0,Resting,,True
datasets_subject_11_to_20_scidata/GDN0019/GDN0019_1_Resting.mat,GDN0019,Resting,2018-03-21_09-56-43,v5,40.2,2000.0,2000.0,1000.0,100.0,200.0,1206200,1206200,603.1,True,,603.1,603.1,603.12,603.1,77197,75,149,-605.4269304830499,878.6905556862267,2125.162438105634,1681.4495324247464,-0.7008698129305841,1.2638871385220989,0.0580252875345575,-2658.994674682617,1484.7235679626465,558.3675219933206,885.7575044621648,-2187.1667337417603,1420.342926979065,0,0,0.0001658099817609,2,-1442.004680633545,2960.898876190185,1646.7628365356795,779.5744175578462,274.83558177948,2823.514542579651,0,0,0.0001658099817609,2,-18.70612457124309,-0.6182230318148049,-17.391920728453762,1.2099697653993309,-18.32940219405053,-15.054862517589276,0,0,0.0001658099817609,0,-18.59445352522582,-0.6145323896204907,-17.288095161987595,1.2027465381169071,-18.219980089643748,-14.964988624224432,0,0,0.0001658099817609,0,-15.48492699297094,9.518294918796528,-0.0244318363381519,1.7658746471829594,-4.408409850532885,3.9104048337579393,0,0,0.0001658099817609,0,-5185.091382015031,5612.618400477804,-0.0034576397127221,825.1347937775805,-1989.604330789649,1988.868954672372,0,0,0.0001658099817609,0,94.51008406494212,3382.133034613451,1027.1969766836266,580.6625528770684,267.8086616388083,2897.217592631424,0,0,0.0001658099817609,0,-0.2196010474144503,0.2032484554990255,2.0624796007651437e-05,0.0460890309697099,-0.1234470241274351,0.1067674069640601,0,0,0.0001658099817609,0,17.97992113560533,2.878778940159515,-0.9921917684103682,0.8924925377655604,0.0063770246482579,0.3617240341147086,-0.5180907377344182,0.6655325202467712,0,0,0.0001658099817609,2,-1.1600121103318577,2.2237904549641985,-0.0003107773674309,0.439326264851087,-0.6348418424322219,1.098789688119784,0,0,0.0001658099817609,2,-1.96612551098778,3.435368152468705,-0.0089147423388113,0.7318972666537295,-1.0805481602603917,2.3515988502213,0,0,0.0003316199635218,0,31.13605075811201,34.68492276470562,31.55364037976241,0.2558443219784004,31.1999892729781,32.19853231685553,0,0,0.0033160896670645,2,68.83368295436958,121.41475495694527,87.27360807327779,9.66789137053331,73.106960453107,113.90639937876864,0,0,0.001658099817609,2,3.431816586310559,3.4577328238179392,3.4433230510983743,0.0053058573419919,3.4348999959586286,3.454299651244005,0,0,0.0001658099817609,2,483,48.33197774601125,2.863295444432042,75.52398556639695,0.0111921830477392,1247.0,True,48.31023612908442,484,1.395,0.0329035045495564,2.337490014503469,large_sync_lag,1,2.95,Resting,,True
datasets_subject_11_to_20_scidata/GDN0020/GDN0020_1_Resting.mat,GDN0020,Resting,2018-03-21_12-27-21,v5,42.63,2000.0,2000.0,1000.0,100.0,200.0,1280300,1280300,640.15,True,,640.15,640.15,640.16,640.16,81939,80,159,-856.4059413710429,217.11457339706817,1883.046701783349,1573.8727997889007,1.5114296710623076,1.1964414799187817,0.0722545333105919,-2070.6043243408203,900.4254341125488,165.02918534434178,667.3244802725627,-1457.159538269043,816.6580677032471,0,0,0.0001562133874873,2,-544.5432662963867,2329.559326171875,1096.3837916182697,808.3254313697635,-365.4265737533569,2196.199898719788,0,0,0.0001562133874873,2,-1.944975969369487,0.9490265541241968,-0.8656144118756944,0.6660283679376399,-1.835228941540892,0.4637411315605352,0,0,0.0001562133874873,0,-1.9333649325590168,0.943361094793292,-0.860446902889339,0.662052339432029,-1.8242730679818064,0.4609727090021712,0,0,0.0001562133874873,0,-7.577107706988698,7.68463405053194,-0.0002020954081035,1.5994787061260638,-3.721265236111598,3.723971630501477,0,0,0.0001562133874873,0,-4289.103443373038,6069.527565556815,0.0081659453018699,834.0120230269689,-1969.4157104038995,1971.5685010509255,0,0,0.0001562133874873,0,164.84914983493775,2271.328380644499,968.26518061862,401.4654467967965,277.0596749752813,1831.4336700572956,0,0,0.0001562133874873,0,-0.1803740006117813,0.181174160136468,-1.7603816895486433e-05,0.0329780266962673,-0.0804876321678206,0.0758384553314499,0,0,0.0001562133874873,0,2.876726027352309,0.4605948069344387,-0.4507453139557605,0.7719717212896678,0.0087508340248777,0.194543614873034,-0.3042604028070311,0.5020446657645162,0,0,0.0001562133874873,0,-0.5779765722537453,1.6650427273626445,-0.0090879418073026,0.2751047271097457,-0.444235478984364,0.815055976657691,0,0,0.0001562133874873,0,-1.6504329785869731,2.7684852686758896,-0.0129800851964783,0.7058347593849399,-1.0672318519424824,2.1593915912217665,0,0,0.0003124257988727,0,31.944892501860792,33.082924597447054,32.30689432828677,0.1912838569186463,32.00444541710764,32.77588001666074,0,0,0.0031242189452636,2,71.91383876480288,133.43048510015836,93.18142329469391,11.049394914674057,75.9656137842319,124.07850248852286,0,0,0.0015621094726318,0,3.4321658066961183,3.456944226410073,3.4428966317179364,0.0050026311644652,3.435177522692203,3.45338997501122,0,0,0.0001562133874873,0,653,61.89071683837973,6.730264107306913,93.6428445470845,0.0168710590260556,994.5,True,61.89019649378507,653,-1.054,0.0223093905183907,1.934381946813672,large_sync_lag,1,3.22,Resting,,True
datasets_subject_21_to_30_scidata/GDN0021/GDN0021_1_Resting.mat,GDN0021,Resting,2018-03-26_12-08-18,v5,41.12,2000.0,2000.0,1000.0,100.0,200.0,1227850,1227850,613.92,True,,613.92,613.92,613.92,613.92,78582,76,152,-312.7076743128582,1173.7784224685222,2664.3731163279163,1865.632554781816,-0.3099090543124108,1.4281339106668365,0.1198797243039959,-3078.5140991210938,2161.684513092041,-1913.9595126822217,947.8522109354136,-3025.4767274856567,981.7511701583868,0,0,0.000162886346052,2,-842.1740531921387,3409.3661308288574,2520.867867384156,650.3878980896976,529.1599273681641,3301.156530380249,0,0,0.000162886346052,2,-5.57158357005944,2.694210297449437,-3.647412284706036,0.648138766271503,-4.939660685750689,-2.252049095818118,0,0,0.000162886346052,0,-5.538322561726498,2.6781265126461866,-3.625638114244481,0.6442695343673622,-4.910172104422831,-2.238604906603273,0,0,0.000162886346052,0,-13.40696843529247,12.583098451257342,-0.0033906862019064,2.1149618831484056,-5.266662961962427,5.057328731634296,0,0,0.000162886346052,0,-7857.676916437049,8257.262464785628,-0.0086559907030518,1071.6335789732298,-2721.908743427544,2741.7103506513818,0,0,0.000162886346052,0,61.710196554717406,4554.422672362126,993.2980453182436,578.6080062733686,212.44895828329612,2956.7503608144893,0,0,0.000162886346052,0,-0.350122862554018,0.2285618275083721,2.7453080562876587e-05,0.0603881459590139,-0.1345388009661351,0.1135769581548929,0,0,0.000162886346052,0,8.216449074372685,1.315541952592713,-1.2039308864672813,0.83891739507687,0.0050936457729756,0.1923270894399615,-0.3141067858753946,0.4929673167252061,0,0,0.000162886346052,0,-0.6803448656104881,1.1389729704865728,-0.0059466472060259,0.2267914640533807,-0.4279249442119901,0.6532995300514782,0,0,0.000162886346052,0,-1.4063240976508802,2.1690041223511645,-0.0123788337145065,0.5842586720605243,-0.8898263100959247,1.6346969813391556,0,0,0.000325772692104,0,29.402211407663188,30.608359498386985,29.66341455228718,0.1105880010745307,29.460848639613303,29.92504001153941,0,0,0.0032577534532186,0,80.70205723325924,142.3001258156169,102.86084366374313,12.575842438637196,87.13012408946216,137.98447350712837,0,0,0.0016288767266093,2,3.4323237172690684,3.45651619346708,3.4422081864566607,0.0049703120561644,3.435191689110364,3.453207648755785,0,0,0.000162886346052,0,679,66.6721265984878,5.723499822112308,44.3667850134088,0.0465855329116202,902.5,True,66.4096475834626,677,0.093,0.0188226408153612,2.33062792482357,,0,3.14,Resting,,True
datasets_subject_21_to_30_scidata/GDN0022/GDN0022_1_Resting.mat,GDN0022,Resting,2018-03-27_11-23-47,v5,43.81,2000.0,2000.0,1000.0,100.0,200.0,1319500,1319500,659.75,True,,659.75,659.75,659.76,659.76,84448,82,163,46.62480109463832,771.9903969183708,1631.0391910523936,1354.7423192428778,-1.1421232383414293,1.2039479153230623,0.1338462803600818,-1930.4313659667969,1795.5737113952637,1006.3912218067852,438.19201467175054,-220.18008708953855,1678.6475610733032,0,0,0.0001515725653656,2,-999.5908737182616,3020.042896270752,488.9225154893333,1003.278236894928,-874.4664335250854,2379.9710416793823,0,0,0.0001515725653656,2,-1.0079738249219163,3.96076352314129,0.9622366205891718,0.8312224944424377,-0.6397941142757596,2.5514223315783764,0,0,0.0001515725653656,0,-1.001956464620569,3.93711872146301,0.956492300351804,0.8262602968972459,-0.635974697928736,2.536190956446984,0,0,0.0001515725653656,0,-13.961125206731566,11.944683482193511,-0.0038154601514604,1.7956225490868452,-4.106576269626908,4.363071506878665,0,0,0.0001515725653656,0,-5491.427303241406,5325.091562296962,-0.0043806086187303,941.825812170156,-2228.9878122180176,2227.3049210307013,0,0,0.0001515725653656,0,38.2241354402041,3313.0461887929146,1009.7484514875844,423.06917527457466,260.33732179906065,2029.517297719216,0,0,0.0001515725653656,0,-0.6773713171864587,0.5386879215659433,1.2487835997499778e-05,0.0547511363790756,-0.1343533710262038,0.1269913928905984,0,0,0.0001515725653656,0,4.93907518608358,0.7907991098695745,-1.1337202737579954,5.6105606021675705,0.0108827593266591,0.1816419777486793,-0.2883513715763613,0.7654413022536226,0,0,0.0001515725653656,0,-1.1795228843499312,6.207067835074652,-9.98335034959068e-05,0.182690491214375,-0.3673946430210382,0.4735347380172959,0,0,0.0001515725653656,0,-1.9670341338437405,2.7981159473869552,-0.0114367965535706,0.4387986990264582,-0.7330753657964791,1.4175641621883828,0,0,0.0003031442117644,0,38.24538331754697,39.52791870060931,38.50778071152737,0.1296575052358397,38.29930149502893,38.89062584716964,0,0,0.0030314053595246,2,75.715991162123,132.23656378578625,100.59536002370076,13.77653762194486,80.13664080666511,128.07560729760988,0,0,0.0015157026797623,2,3.432554065357853,3.454543591325801,3.442073502994681,0.0042342840875823,3.4355278151552757,3.451062157056544,0,0,0.0001515725653656,0,621,56.76113581038136,6.091307591717009,60.87104672636912,0.2097765894479647,1066.5,True,56.64222307389639,621,0.0,0.0237748699414493,2.036812120798364,,0,3.1,Resting,,True
datasets_subject_21_to_30_scidata/GDN0023/GDN0023_1_Resting.mat,GDN0023,Resting,2018-03-28_11-40-51,v5,45.05,2000.0,2000.0,1000.0,100.0,200.0,1357700,1357700,678.85,True,,678.85,678.85,678.84,678.86,86893,84,168,84.4150562455095,1006.709305027848,1341.3661231201515,940.0425825239384,-0.7736071370634203,1.4269205970634775,0.2169189624379163,-1459.7349166870115,828.2294273376465,-652.5153089674195,420.8011576331455,-1347.5189399719238,504.347496032715,0,0,0.0001473079472637,2,-132.0338249206543,2349.581718444824,1496.438449979522,606.5787654670562,99.74858283996582,2267.266798019409,0,0,0.0001473079472637,2,-4.851759979906836,-0.4747884193036955,-2.876678747113756,0.8312446178155314,-4.480167923373314,-1.2145929172550545,0,0,0.0001473079472637,0,-4.822796144564168,-0.4719540471055097,-2.859505669733545,0.8262822881991454,-4.453422402865809,-1.207342090872579,0,0,0.0001473079472637,0,-13.565836138013225,11.840413817409626,-0.0030895973784799,2.053527125237092,-5.114420220926757,4.994847702582284,0,0,0.0001473079472637,0,-7071.686403322965,7122.722058064508,0.0033258936813244,1082.8219467242227,-2668.172831235994,2678.7623378623,0,0,0.0001473079472637,0,14.608710131568165,1710.7963796697295,679.5739921369628,288.4278110584423,127.45050751710896,1470.3584838610614,0,0,0.0001473079472637,0,-0.3478548244022141,0.1985713779785538,7.569299853768284e-06,0.0714174550592557,-0.1621061042884411,0.1093113551642943,0,0,0.0001473079472637,0,4.350842097458658,0.6966166596426372,-0.3015578022551848,0.4626869938034225,0.0073323140703829,0.0960647561853761,-0.1586889070172584,0.2967999046449343,0,0,0.0001473079472637,0,-1.1706468445022185,0.9812070718203564,0.0059055692291626,0.1763551666589763,-0.3368140316914608,0.5424885471886809,0,0,0.0001473079472637,0,-1.9140996367043417,3.5123598325146,-0.0143782373380318,0.9090430308620824,-1.1732431341884553,2.8675649698960486,0,0,0.0002946150265448,0,35.41703766942788,36.98790466170271,36.08445338953748,0.2632697292077224,35.57216748622452,36.66510507666305,0,0,0.002946202345177,2,65.79650446841454,114.96894341800672,81.27123502122187,9.760967429134,68.77438137738119,109.31756114215524,0,0,0.0014730577733258,2,3.434817128421084,3.4565756160375773,3.443941810154201,0.0040826302399344,3.437868357968472,3.452966304492396,0,0,0.0001473079472637,0,635,56.54879271824117,5.49431391033355,86.49079707045772,0.1036312172285609,1072.75,True,56.55143884268861,635,1.364,0.0386976517122131,3.0109374501369355,large_sync_lag,1,3.38,Resting,,True
datasets_subject_21_to_30_scidata/GDN0024/GDN0024_1_Resting.mat,GDN0024,Resting,2018-03-28_15-08-25,v5,40.55,2000.0,2000.0,1000.0,100.0,200.0,1220950,1220950,610.48,True,,610.48,610.48,610.48,610.48,78141,76,151,111.27240896013586,1244.2842882771122,1297.654637228831,1095.105972341626,-0.9188759552142228,1.1849580497256371,0.1104324975745893,-1502.206325531006,1943.7217712402344,929.7622093095392,357.45851633272565,-435.59640407562256,1396.9736099243164,0,0,0.0001638068716982,2,-755.4011344909668,2741.9538497924805,1012.397637839614,796.4044312247763,35.57395935058594,2517.9856061935425,0,0,0.0001638068716982,2,-0.5008355046629746,13.592534966642049,0.8571622465550317,1.0760259658122264,-0.2097243633315302,3.0948264908808056,0,0,0.0001638068716982,0,-0.4978456376557656,13.511390815593,0.8520451949543786,1.0696023506648795,-0.2084723595324888,3.0763511241546637,0,0,0.0001638068716982,0,-26.368147464506933,32.88981158254353,-0.0036791659535907,2.6132614205337914,-6.434695667447961,6.076118585060663,0,0,0.0001638068716982,0,-20208.214721560624,18135.21238507866,-0.0306831259383078,1278.853273859067,-3038.654429625272,3029.54302290452,0,0,0.0001638068716982,0,3.1237406996046357,2471.071300257124,793.4421527310024,363.98648222543306,193.8880826063881,1962.3855574466063,0,0,0.0001638068716982,0,-0.3758531485896783,0.9073883989039336,1.5073408794935158e-05,0.0764116445506008,-0.181926092758887,0.172646557210566,0,0,0.0001638068716982,0,14.009236453248766,2.243029575333549,-0.4357142368034286,0.4525739628829749,0.0076188662465982,0.0726541633388219,-0.1447419252657552,0.2042803070371765,0,0,0.0001638068716982,2,-0.5575316625895366,2.0784136024598947,-0.0162244212662248,0.2727586448751695,-0.3225526651621659,1.49878349345987,0,0,0.0001638068716982,2,-1.7970955505348565,3.5944599477081587,-0.0116906458811759,0.8552336100617759,-1.2998739511916098,2.57999034813008,0,0,0.0003276126700924,2,29.437281262813386,31.34261648941324,29.88907219420322,0.2943161107648812,29.519572391052428,30.93060252690403,0,0,0.0032761106014939,2,66.36586285572885,116.36957977463078,84.53849543166608,9.6666961230664,69.53693432028504,111.67169113607991,0,0,0.0016380553007469,2,3.435097182254958,3.454035408857021,3.4420375679353747,0.0027268306357519,3.4378877357919277,3.448422015552937,0,0,0.0001638068716982,2,689,67.8692172266769,3.4645911994878302,47.24416278261864,0.0247348578851368,889.0,True,67.95853581942575,690,0.186,0.0202723538254721,2.9077518853570203,,0,3.12,Resting,,True
